Time,EMG
0.819328784942627,1
0.819328784942627,2
0.819328784942627,0
0.819328784942627,2
0.819328784942627,1
0.819328784942627,3
0.819328784942627,0
0.819328784942627,5
0.819328784942627,1
0.819328784942627,4
0.819328784942627,0
0.819328784942627,1
0.819328784942627,0
0.819328784942627,0
0.819328784942627,1
0.819328784942627,2
0.819328784942627,0
0.819328784942627,0
0.819328784942627,4
0.819328784942627,5
0.819328784942627,0
0.819328784942627,0
0.819328784942627,3
0.819328784942627,0
0.819328784942627,2
0.819328784942627,0
0.819328784942627,0
0.819328784942627,1
0.819328784942627,0
0.819328784942627,9
0.819328784942627,0
0.819328784942627,0
0.819328784942627,6
0.819328784942627,5
0.819328784942627,5
0.819328784942627,0
0.8210768699645996,3
0.8214254379272461,0
0.8214254379272461,2
0.8214254379272461,0
0.8214254379272461,2
0.8214254379272461,0
0.8214254379272461,2
0.8214254379272461,0
0.8214254379272461,1
0.8214254379272461,0
0.8214254379272461,0
0.8214254379272461,0
0.8214254379272461,2
0.8214254379272461,4
0.8214254379272461,7
0.8214254379272461,0
0.8214254379272461,6
0.8214254379272461,0
0.8214254379272461,3
0.8214254379272461,3
0.8214254379272461,6
0.8214254379272461,0
0.8214254379272461,4
0.8214254379272461,7
0.8214254379272461,0
0.8214254379272461,2
0.8214254379272461,6
0.8214254379272461,0
0.8214254379272461,4
0.8214254379272461,0
0.8214254379272461,1
0.8214254379272461,0
0.8214254379272461,3
0.8214254379272461,0
0.8214254379272461,0
0.8214254379272461,0
0.8214254379272461,3
0.8214254379272461,3
0.8214254379272461,0
0.8214254379272461,0
0.8214254379272461,1
0.8214254379272461,9
0.8214254379272461,0
0.8214254379272461,1
0.8214254379272461,2
0.8214254379272461,0
0.8214254379272461,4
0.8214254379272461,0
0.8214254379272461,4
0.8214254379272461,7
0.8214254379272461,1
0.8214254379272461,2
0.8214254379272461,0
0.8214254379272461,0
0.8214254379272461,6
0.8214254379272461,5
0.8214254379272461,1
0.8214254379272461,9
0.8214254379272461,0
0.8214254379272461,5
0.8214254379272461,0
0.8214254379272461,7
0.8214254379272461,3
0.8214254379272461,3
0.8214254379272461,0
0.8214254379272461,5
0.8214254379272461,0
0.8214254379272461,6
0.8214254379272461,0
0.8214254379272461,6
0.8214254379272461,0
0.8214254379272461,2
0.8214254379272461,3
0.8214254379272461,4
0.8214254379272461,0
0.8214254379272461,4
0.8214254379272461,0
0.8214254379272461,6
0.8214254379272461,0
0.8214254379272461,2
0.8214254379272461,0
0.8214254379272461,6
0.8214254379272461,0
0.8214254379272461,5
0.8214254379272461,1
0.8214254379272461,3
0.8214254379272461,0
0.8214254379272461,0
0.8214254379272461,0
0.8214254379272461,0
0.8214254379272461,4
0.8214254379272461,0
0.8214254379272461,0
0.8214254379272461,0
1.0832273960113525,0
1.0832273960113525,0
1.0832273960113525,6
1.0832273960113525,1
1.0832273960113525,0
1.0832273960113525,1
1.0832273960113525,3
1.0832273960113525,0
1.0832273960113525,6
1.0832273960113525,4
1.0832273960113525,16
1.0832273960113525,1
1.0832273960113525,6
1.0832273960113525,5
1.0832273960113525,7
1.0832273960113525,3
1.0832273960113525,3
1.0832273960113525,0
1.0832273960113525,0
1.0832273960113525,0
1.0832273960113525,0
1.0832273960113525,0
1.0832273960113525,1
1.0832273960113525,0
1.0832273960113525,0
1.3331737518310547,0
1.3331737518310547,0
1.3331737518310547,1
1.3331737518310547,4
1.3331737518310547,0
1.3331737518310547,0
1.3331737518310547,0
1.3331737518310547,0
1.3331737518310547,0
1.3331737518310547,0
1.3331737518310547,1
1.3331737518310547,0
1.3331737518310547,0
1.3331737518310547,0
1.3331737518310547,0
1.3331737518310547,2
1.3331737518310547,0
1.3331737518310547,0
1.3331737518310547,0
1.3331737518310547,0
1.3331737518310547,0
1.3331737518310547,0
1.3331737518310547,0
1.3331737518310547,0
1.3331737518310547,0
1.5695273876190186,1
1.5695273876190186,0
1.5729682445526123,0
1.5729682445526123,0
1.5729682445526123,0
1.5729682445526123,0
1.5729682445526123,1
1.5729682445526123,0
1.5729682445526123,0
1.5729682445526123,0
1.5729682445526123,0
1.5729682445526123,0
1.5729682445526123,1
1.5729682445526123,0
1.5729682445526123,2
1.5729682445526123,0
1.5729682445526123,0
1.5729682445526123,0
1.5729682445526123,0
1.5729682445526123,0
1.5729682445526123,0
1.5729682445526123,0
1.5729682445526123,0
1.7483580112457275,0
1.7483580112457275,0
1.7483580112457275,0
1.7483580112457275,0
1.7483580112457275,0
1.7483580112457275,0
1.7483580112457275,0
1.7483580112457275,0
1.7483580112457275,0
1.7483580112457275,0
1.7483580112457275,0
1.7483580112457275,0
1.7483580112457275,0
1.7483580112457275,0
1.7483580112457275,0
1.7483580112457275,0
1.7483580112457275,0
1.7483580112457275,0
1.9848947525024414,0
1.9848947525024414,0
1.9848947525024414,2
1.9848947525024414,0
1.9848947525024414,4
1.9848947525024414,0
1.9848947525024414,2
1.9848947525024414,0
1.9848947525024414,0
1.9848947525024414,0
1.9848947525024414,0
1.9848947525024414,0
1.9848947525024414,2
1.9848947525024414,0
1.9848947525024414,0
1.9848947525024414,0
1.9997239112854004,0
1.9997239112854004,0
1.9997239112854004,0
1.9997239112854004,0
1.9997239112854004,0
1.9997239112854004,0
1.9997239112854004,0
1.9997239112854004,0
2.113051414489746,0
2.113051414489746,0
2.113051414489746,0
2.113051414489746,0
2.113051414489746,0
2.113051414489746,0
2.113051414489746,0
2.1180498600006104,0
2.1180498600006104,0
2.1180498600006104,0
2.1180498600006104,0
2.1180498600006104,0
2.2394001483917236,1
2.2394001483917236,0
2.2394001483917236,0
2.2394001483917236,0
2.2394001483917236,4
2.2394001483917236,0
2.2394001483917236,0
2.2394001483917236,0
2.2394001483917236,0
2.2394001483917236,0
2.2394001483917236,0
2.2394001483917236,2
2.334625244140625,1
2.334625244140625,0
2.334625244140625,2
2.334625244140625,0
2.334625244140625,0
2.334625244140625,0
2.334625244140625,0
2.334625244140625,0
2.334625244140625,0
2.334625244140625,0
2.4301795959472656,0
2.4301795959472656,0
2.4301795959472656,0
2.4301795959472656,0
2.4301795959472656,0
2.4301795959472656,0
2.4301795959472656,1
2.4301795959472656,3
2.4301795959472656,0
2.4301795959472656,0
2.536045789718628,0
2.536045789718628,3
2.536045789718628,0
2.536045789718628,0
2.536045789718628,0
2.536045789718628,0
2.536045789718628,1
2.536045789718628,0
2.536045789718628,0
2.637030839920044,4
2.637030839920044,0
2.637030839920044,0
2.637030839920044,0
2.637030839920044,0
2.637030839920044,0
2.637030839920044,0
2.637030839920044,0
2.637030839920044,0
2.637030839920044,0
2.742027997970581,4
2.742027997970581,1
2.742027997970581,1
2.742027997970581,0
2.742027997970581,0
2.742027997970581,0
2.742027997970581,0
2.742027997970581,0
2.742027997970581,0
2.742027997970581,0
2.8280913829803467,0
2.8280913829803467,0
2.8280913829803467,0
2.8280913829803467,0
2.8280913829803467,1
2.8280913829803467,5
2.8280913829803467,0
2.8280913829803467,18
2.8280913829803467,0
2.8280913829803467,0
2.9327545166015625,6
2.9327545166015625,5
2.9327545166015625,0
2.9327545166015625,14
2.9327545166015625,1
2.9327545166015625,19
2.9376208782196045,13
2.9376208782196045,10
2.9376208782196045,7
3.033803939819336,1
3.033803939819336,17
3.033803939819336,19
3.033803939819336,0
3.033803939819336,13
3.033803939819336,0
3.033803939819336,30
3.033803939819336,0
3.033803939819336,55
3.033803939819336,34
3.134023666381836,0
3.134023666381836,14
3.134023666381836,48
3.134023666381836,11
3.134023666381836,0
3.134023666381836,5
3.134023666381836,60
3.134023666381836,60
3.134023666381836,0
3.134023666381836,25
3.2345690727233887,39
3.2345690727233887,72
3.2345690727233887,100
3.2345690727233887,8
3.2345690727233887,10
3.2345690727233887,27
3.2345690727233887,43
3.2345690727233887,44
3.2345690727233887,4
3.33419132232666,30
3.33419132232666,13
3.33419132232666,22
3.33419132232666,1
3.33419132232666,16
3.33419132232666,15
3.33419132232666,63
3.33419132232666,65
3.33419132232666,2
3.33419132232666,51
3.433210849761963,23
3.433210849761963,1
3.433210849761963,2
3.433210849761963,13
3.433210849761963,99
3.433210849761963,48
3.433210849761963,0
3.433210849761963,0
3.433210849761963,0
3.433210849761963,11
3.5249879360198975,58
3.5249879360198975,10
3.5249879360198975,16
3.5249879360198975,27
3.5249879360198975,13
3.5249879360198975,17
3.5249879360198975,2
3.5249879360198975,13
3.5249879360198975,2
3.5249879360198975,0
3.6309854984283447,11
3.6309854984283447,42
3.6309854984283447,0
3.6309854984283447,10
3.6309854984283447,16
3.6309854984283447,0
3.6309854984283447,5
3.6309854984283447,31
3.6309854984283447,8
3.7257747650146484,15
3.7257747650146484,0
3.7257747650146484,0
3.7257747650146484,14
3.7257747650146484,0
3.7257747650146484,0
3.7257747650146484,0
3.7257747650146484,37
3.7257747650146484,0
3.7257747650146484,0
3.826692581176758,0
3.826692581176758,0
3.826692581176758,0
3.826692581176758,0
3.826692581176758,0
3.826692581176758,0
3.826692581176758,0
3.828211545944214,0
3.828211545944214,0
3.828211545944214,0
3.9225265979766846,0
3.9225265979766846,0
3.9225265979766846,0
3.9225265979766846,0
3.9225265979766846,2
3.9225265979766846,0
3.9225265979766846,0
3.9225265979766846,0
3.9225265979766846,3
4.017415761947632,0
4.017415761947632,0
4.017415761947632,0
4.017415761947632,0
4.017415761947632,0
4.017415761947632,0
4.017415761947632,0
4.017415761947632,0
4.017415761947632,0
4.017415761947632,0
4.123053073883057,0
4.123053073883057,0
4.123053073883057,0
4.123053073883057,0
4.123053073883057,0
4.123053073883057,0
4.123053073883057,0
4.123053073883057,0
4.123053073883057,1
4.123053073883057,0
4.2074925899505615,0
4.2074925899505615,0
4.2074925899505615,0
4.2074925899505615,0
4.2074925899505615,0
4.2074925899505615,0
4.2074925899505615,0
4.2074925899505615,0
4.2074925899505615,0
4.304868698120117,0
4.304868698120117,0
4.304868698120117,0
4.304868698120117,0
4.304868698120117,0
4.304868698120117,0
4.304868698120117,0
4.304868698120117,0
4.304868698120117,0
4.405018329620361,0
4.405018329620361,0
4.405018329620361,0
4.405018329620361,0
4.405018329620361,0
4.405018329620361,0
4.405018329620361,0
4.405018329620361,0
4.405018329620361,0
4.405018329620361,0
4.49509859085083,0
4.49509859085083,0
4.49509859085083,0
4.49509859085083,0
4.49509859085083,0
4.49509859085083,0
4.49509859085083,1
4.49509859085083,0
4.49509859085083,0
4.589513540267944,0
4.589513540267944,0
4.589513540267944,4
4.589513540267944,0
4.589513540267944,1
4.589513540267944,0
4.589513540267944,0
4.589513540267944,0
4.589513540267944,0
4.685096263885498,0
4.685096263885498,2
4.685096263885498,0
4.685096263885498,3
4.685096263885498,0
4.685096263885498,0
4.685096263885498,0
4.685096263885498,0
4.685096263885498,1
4.775063991546631,0
4.775063991546631,0
4.775063991546631,0
4.775063991546631,0
4.775063991546631,0
4.775063991546631,0
4.775063991546631,0
4.775063991546631,0
4.775063991546631,0
4.859962463378906,0
4.859962463378906,0
4.859962463378906,0
4.859962463378906,0
4.859962463378906,1
4.859962463378906,0
4.859962463378906,0
4.859962463378906,0
4.859962463378906,0
4.972215890884399,0
4.972215890884399,0
4.972215890884399,0
4.972215890884399,0
4.972215890884399,0
4.972215890884399,1
4.972215890884399,0
4.972215890884399,0
4.972215890884399,0
4.972215890884399,0
5.067387104034424,0
5.067387104034424,0
5.067387104034424,1
5.067387104034424,0
5.067387104034424,0
5.067387104034424,0
5.067387104034424,0
5.067387104034424,0
5.067387104034424,0
5.067387104034424,0
5.172703504562378,0
5.172703504562378,0
5.172703504562378,0
5.172703504562378,0
5.172703504562378,0
5.172703504562378,0
5.172703504562378,0
5.172703504562378,2
5.172703504562378,0
5.172703504562378,1
5.273651361465454,0
5.273651361465454,0
5.273651361465454,0
5.273651361465454,0
5.273651361465454,0
5.273651361465454,0
5.273651361465454,0
5.273651361465454,0
5.273651361465454,0
5.275893688201904,0
5.374452114105225,0
5.374452114105225,0
5.374452114105225,0
5.374452114105225,0
5.374452114105225,0
5.374452114105225,0
5.374452114105225,0
5.374452114105225,0
5.374452114105225,2
5.374452114105225,8
5.463849067687988,1
5.463849067687988,0
5.463849067687988,0
5.463849067687988,1
5.463849067687988,0
5.463849067687988,4
5.463849067687988,0
5.463849067687988,0
5.463849067687988,0
5.559236764907837,0
5.559236764907837,0
5.559236764907837,0
5.559236764907837,0
5.559236764907837,3
5.559236764907837,0
5.559236764907837,6
5.559236764907837,15
5.559236764907837,0
5.6391282081604,0
5.6391282081604,0
5.6391282081604,0
5.6391282081604,4
5.6391282081604,0
5.6391282081604,2
5.6391282081604,0
5.6391282081604,3
5.6391282081604,4
5.734937429428101,1
5.734937429428101,0
5.734937429428101,0
5.734937429428101,0
5.734937429428101,0
5.734937429428101,0
5.734937429428101,1
5.734937429428101,4
5.734937429428101,1
5.839342355728149,1
5.839342355728149,0
5.839342355728149,0
5.839342355728149,0
5.839342355728149,0
5.839342355728149,0
5.839342355728149,0
5.839342355728149,0
5.839342355728149,0
5.839342355728149,0
5.936610221862793,0
5.936610221862793,0
5.936610221862793,0
5.936610221862793,0
5.936610221862793,0
5.936610221862793,1
5.936610221862793,0
5.936610221862793,0
5.936610221862793,0
6.032098054885864,0
6.032098054885864,1
6.032098054885864,0
6.032098054885864,3
6.032098054885864,0
6.032098054885864,2
6.032098054885864,0
6.032098054885864,2
6.032098054885864,0
6.127812623977661,0
6.127812623977661,0
6.127812623977661,4
6.127812623977661,0
6.127812623977661,1
6.127812623977661,0
6.127812623977661,1
6.127812623977661,0
6.127812623977661,4
6.127812623977661,0
6.223874568939209,1
6.223874568939209,0
6.223874568939209,4
6.223874568939209,0
6.223874568939209,2
6.223874568939209,0
6.223874568939209,0
6.223874568939209,0
6.223874568939209,0
6.318866729736328,0
6.318866729736328,1
6.318866729736328,1
6.318866729736328,1
6.318866729736328,1
6.318866729736328,0
6.318866729736328,0
6.318866729736328,0
6.318866729736328,0
6.318866729736328,1
6.4087302684783936,0
6.4087302684783936,0
6.4087302684783936,0
6.4087302684783936,5
6.4087302684783936,0
6.4087302684783936,0
6.4087302684783936,0
6.4087302684783936,0
6.4087302684783936,0
6.497868537902832,0
6.497868537902832,0
6.497868537902832,0
6.497868537902832,0
6.497868537902832,0
6.497868537902832,0
6.497868537902832,0
6.497868537902832,0
6.497868537902832,0
6.592681646347046,2
6.592681646347046,0
6.592681646347046,0
6.592681646347046,0
6.592681646347046,0
6.592681646347046,0
6.592681646347046,0
6.592681646347046,0
6.592681646347046,1
6.696769714355469,3
6.696769714355469,5
6.696769714355469,0
6.696769714355469,0
6.696769714355469,0
6.696769714355469,0
6.696769714355469,0
6.696769714355469,3
6.696769714355469,0
6.696769714355469,0
6.782957077026367,0
6.782957077026367,0
6.782957077026367,0
6.782957077026367,1
6.782957077026367,0
6.782957077026367,0
6.782957077026367,0
6.782957077026367,0
6.782957077026367,0
6.782957077026367,1
6.877997636795044,0
6.877997636795044,0
6.877997636795044,0
6.877997636795044,1
6.877997636795044,3
6.877997636795044,0
6.877997636795044,0
6.877997636795044,0
6.877997636795044,0
6.984845161437988,0
6.984845161437988,0
6.984845161437988,0
6.984845161437988,0
6.984845161437988,0
6.984845161437988,0
6.984845161437988,0
6.984845161437988,0
6.984845161437988,0
7.0784196853637695,0
7.0784196853637695,0
7.0784196853637695,0
7.0784196853637695,0
7.0784196853637695,1
7.0784196853637695,0
7.0784196853637695,1
7.0784196853637695,0
7.0784196853637695,2
7.0784196853637695,0
7.172648906707764,3
7.172648906707764,0
7.172648906707764,5
7.172648906707764,0
7.172648906707764,4
7.172648906707764,0
7.172648906707764,5
7.172648906707764,0
7.172648906707764,0
7.257803678512573,0
7.257803678512573,0
7.257803678512573,0
7.257803678512573,5
7.257803678512573,0
7.257803678512573,2
7.257803678512573,0
7.257803678512573,1
7.257803678512573,0
7.353326082229614,1
7.353326082229614,0
7.353326082229614,1
7.353326082229614,0
7.353326082229614,0
7.353326082229614,0
7.353326082229614,2
7.353326082229614,0
7.353326082229614,0
7.459183692932129,0
7.459183692932129,0
7.459183692932129,0
7.459183692932129,0
7.459183692932129,0
7.459183692932129,0
7.459183692932129,0
7.459183692932129,0
7.459183692932129,0
7.459183692932129,0
7.542551755905151,0
7.542551755905151,0
7.542551755905151,0
7.542551755905151,0
7.542551755905151,0
7.542551755905151,0
7.542551755905151,0
7.542551755905151,0
7.542551755905151,0
7.64680290222168,0
7.64680290222168,0
7.64680290222168,0
7.64680290222168,1
7.64680290222168,0
7.64680290222168,0
7.64680290222168,0
7.64680290222168,1
7.64680290222168,0
7.731672525405884,4
7.731672525405884,0
7.731672525405884,0
7.731672525405884,0
7.731672525405884,9
7.731672525405884,0
7.731672525405884,1
7.731672525405884,0
7.731672525405884,0
7.731672525405884,0
7.827785015106201,3
7.827785015106201,0
7.827785015106201,0
7.827785015106201,0
7.827785015106201,5
7.827785015106201,0
7.827785015106201,0
7.827785015106201,0
7.827785015106201,0
7.922875881195068,0
7.922875881195068,0
7.922875881195068,0
7.922875881195068,4
7.922875881195068,0
7.922875881195068,8
7.922875881195068,15
7.922875881195068,0
7.922875881195068,7
8.019057750701904,0
8.019057750701904,0
8.019057750701904,0
8.019057750701904,0
8.019057750701904,0
8.019057750701904,0
8.019057750701904,0
8.019057750701904,0
8.019057750701904,0
8.114169120788574,0
8.114169120788574,0
8.114169120788574,0
8.114169120788574,0
8.114169120788574,0
8.114169120788574,0
8.114169120788574,7
8.114169120788574,3
8.114169120788574,0
8.114169120788574,1
8.212407350540161,0
8.212407350540161,0
8.212407350540161,38
8.212407350540161,23
8.212407350540161,10
8.212407350540161,1
8.212407350540161,8
8.212407350540161,51
8.212407350540161,0
8.312472581863403,8
8.312472581863403,1
8.312472581863403,11
8.312472581863403,79
8.312472581863403,44
8.312472581863403,17
8.312472581863403,38
8.312472581863403,5
8.312472581863403,120
8.312472581863403,61
8.39929461479187,72
8.39929461479187,142
8.39929461479187,6
8.39929461479187,72
8.39929461479187,0
8.39929461479187,76
8.39929461479187,73
8.39929461479187,107
8.39929461479187,104
8.503736734390259,3
8.503736734390259,29
8.503736734390259,0
8.503736734390259,19
8.503736734390259,334
8.503736734390259,466
8.503736734390259,157
8.503736734390259,837
8.503736734390259,1023
8.589965343475342,271
8.589965343475342,21
8.589965343475342,83
8.589965343475342,24
8.589965343475342,199
8.589965343475342,327
8.589965343475342,256
8.589965343475342,326
8.589965343475342,233
8.589965343475342,71
8.694754123687744,366
8.694754123687744,913
8.694754123687744,184
8.694754123687744,171
8.694754123687744,2
8.694754123687744,179
8.696759462356567,0
8.696759462356567,210
8.696759462356567,323
8.7802152633667,82
8.7802152633667,17
8.7802152633667,181
8.7802152633667,233
8.7802152633667,914
8.7802152633667,111
8.7802152633667,56
8.7802152633667,8
8.7802152633667,12
8.7802152633667,229
8.891168355941772,391
8.891168355941772,114
8.891168355941772,135
8.891168355941772,157
8.891168355941772,109
8.891168355941772,90
8.891168355941772,1
8.891168355941772,41
8.891168355941772,34
8.986879348754883,304
8.986879348754883,36
8.986879348754883,4
8.986879348754883,28
8.986879348754883,16
8.986879348754883,163
8.986879348754883,307
8.986879348754883,40
8.986879348754883,71
8.986879348754883,149
9.084408044815063,48
9.084408044815063,131
9.084408044815063,24
9.084408044815063,14
9.084408044815063,18
9.084408044815063,223
9.084408044815063,284
9.084408044815063,112
9.084408044815063,35
9.084408044815063,35
9.1865553855896,172
9.1865553855896,27
9.1865553855896,350
9.1865553855896,108
9.1865553855896,89
9.1865553855896,16
9.1865553855896,21
9.1865553855896,139
9.1865553855896,184
9.28689193725586,101
9.28689193725586,50
9.28689193725586,44
9.28689193725586,12
9.28689193725586,16
9.28689193725586,154
9.28689193725586,228
9.28689193725586,102
9.28689193725586,154
9.28689193725586,86
9.383516550064087,31
9.383516550064087,294
9.383516550064087,57
9.383516550064087,46
9.383516550064087,18
9.383516550064087,65
9.383516550064087,11
9.383516550064087,23
9.383516550064087,96
9.383516550064087,161
9.485180377960205,154
9.485180377960205,18
9.485180377960205,23
9.485180377960205,58
9.485180377960205,58
9.485180377960205,42
9.485180377960205,44
9.485180377960205,137
9.485180377960205,181
9.485180377960205,143
9.588837385177612,52
9.588837385177612,105
9.588837385177612,68
9.588837385177612,108
9.588837385177612,101
9.588837385177612,0
9.588837385177612,81
9.588837385177612,9
9.588837385177612,21
9.684805154800415,132
9.684805154800415,0
9.684805154800415,35
9.684805154800415,0
9.684805154800415,28
9.684805154800415,0
9.684805154800415,170
9.684805154800415,81
9.684805154800415,70
9.684805154800415,66
9.786349296569824,282
9.788364171981812,488
9.788364171981812,37
9.788364171981812,0
9.788364171981812,5
9.788364171981812,32
9.788364171981812,261
9.788364171981812,83
9.788364171981812,74
9.788364171981812,0
9.886120557785034,283
9.886120557785034,36
9.886120557785034,81
9.886120557785034,20
9.886120557785034,59
9.886120557785034,45
9.886120557785034,171
9.886120557785034,42
9.886120557785034,18
9.980883598327637,97
9.980883598327637,348
9.980883598327637,38
9.980883598327637,22
9.980883598327637,81
9.980883598327637,119
9.980883598327637,69
9.980883598327637,54
9.980883598327637,61
9.980883598327637,33
10.081235408782959,95
10.081235408782959,44
10.081235408782959,109
10.081235408782959,189
10.081235408782959,103
10.081235408782959,53
10.081235408782959,71
10.081235408782959,89
10.081235408782959,59
10.180182933807373,24
10.180182933807373,0
10.180182933807373,117
10.180182933807373,44
10.180182933807373,68
10.180182933807373,42
10.180182933807373,36
10.180182933807373,167
10.180182933807373,12
10.180182933807373,48
10.271711826324463,83
10.271711826324463,32
10.271711826324463,18
10.271711826324463,21
10.271711826324463,5
10.271711826324463,153
10.271711826324463,108
10.271711826324463,50
10.271711826324463,29
10.271711826324463,11
10.37743854522705,51
10.37743854522705,4
10.37743854522705,95
10.37743854522705,253
10.37743854522705,149
10.37743854522705,44
10.377962112426758,36
10.377962112426758,62
10.377962112426758,37
10.473716259002686,78
10.473716259002686,53
10.473716259002686,155
10.473716259002686,61
10.473716259002686,25
10.473716259002686,14
10.473716259002686,209
10.473716259002686,80
10.473716259002686,57
10.473716259002686,203
10.57323169708252,25
10.57323169708252,14
10.57323169708252,0
10.57323169708252,26
10.57323169708252,0
10.57323169708252,151
10.57323169708252,134
10.57323169708252,1
10.57323169708252,69
10.57323169708252,126
10.670576333999634,237
10.670576333999634,3
10.670576333999634,89
10.670576333999634,190
10.670576333999634,0
10.670576333999634,12
10.670576333999634,95
10.670576333999634,122
10.670576333999634,20
10.776838302612305,49
10.776838302612305,94
10.776838302612305,102
10.776838302612305,46
10.776838302612305,67
10.776838302612305,81
10.776838302612305,31
10.776838302612305,126
10.776838302612305,34
10.776838302612305,50
10.776838302612305,318
10.877645015716553,299
10.877645015716553,236
10.877645015716553,153
10.877645015716553,55
10.877645015716553,50
10.877645015716553,66
10.877645015716553,4
10.877645015716553,123
10.877645015716553,288
10.877645015716553,153
10.982944250106812,419
10.982944250106812,11
10.982944250106812,12
10.982944250106812,65
10.982944250106812,0
10.982944250106812,334
10.982944250106812,308
10.982944250106812,114
10.982944250106812,11
10.982944250106812,6
11.087174892425537,23
11.087174892425537,30
11.087174892425537,118
11.087174892425537,3
11.087174892425537,90
11.087174892425537,58
11.087174892425537,124
11.087174892425537,7
11.087174892425537,7
11.087174892425537,43
11.177282571792603,66
11.177282571792603,45
11.177282571792603,29
11.177282571792603,6
11.193369626998901,39
11.193369626998901,20
11.193369626998901,7
11.193369626998901,0
11.193369626998901,13
11.193369626998901,74
11.294649600982666,24
11.294649600982666,40
11.294649600982666,0
11.294649600982666,13
11.294649600982666,20
11.294649600982666,9
11.294649600982666,7
11.294649600982666,0
11.294649600982666,5
11.294649600982666,20
11.384130954742432,54
11.384130954742432,27
11.384130954742432,11
11.384130954742432,0
11.384130954742432,0
11.384130954742432,9
11.384130954742432,0
11.384130954742432,35
11.384130954742432,39
11.384130954742432,0
11.495700359344482,58
11.495700359344482,64
11.495700359344482,0
11.495700359344482,3
11.495700359344482,2
11.495700359344482,23
11.495700359344482,4
11.495700359344482,27
11.495700359344482,51
11.495700359344482,79
11.59287714958191,31
11.59287714958191,58
11.59287714958191,71
11.59287714958191,0
11.59287714958191,10
11.59287714958191,1
11.59287714958191,68
11.59287714958191,84
11.59287714958191,56
11.59287714958191,0
11.688386917114258,11
11.688386917114258,2
11.688386917114258,14
11.688386917114258,0
11.688386917114258,25
11.688386917114258,3
11.688386917114258,71
11.688386917114258,52
11.688386917114258,62
11.799976110458374,17
11.799976110458374,13
11.799976110458374,0
11.799976110458374,0
11.799976110458374,34
11.799976110458374,0
11.799976110458374,0
11.799976110458374,0
11.799976110458374,0
11.799976110458374,36
11.799976110458374,0
11.903929948806763,1
11.903929948806763,12
11.905940532684326,21
11.905940532684326,0
11.905940532684326,10
11.905940532684326,0
11.905940532684326,4
11.905940532684326,0
11.905940532684326,4
11.905940532684326,6
12.010276556015015,11
12.010276556015015,7
12.010276556015015,10
12.010276556015015,0
12.010276556015015,0
12.010276556015015,6
12.010276556015015,4
12.010276556015015,8
12.010276556015015,15
12.010276556015015,6
12.010276556015015,0
12.102692604064941,0
12.102692604064941,3
12.102692604064941,1
12.102692604064941,0
12.102692604064941,0
12.102692604064941,19
12.102692604064941,21
12.102692604064941,0
12.102692604064941,1
12.102692604064941,0
12.214157104492188,9
12.214157104492188,12
12.214157104492188,0
12.214157104492188,0
12.217954635620117,56
12.217954635620117,35
12.217954635620117,9
12.217954635620117,0
12.217954635620117,0
12.217954635620117,1
12.309873104095459,2
12.309873104095459,1
12.309873104095459,0
12.309873104095459,0
12.309873104095459,0
12.309873104095459,0
12.309873104095459,5
12.309873104095459,0
12.309873104095459,0
12.410149335861206,0
12.410149335861206,11
12.410149335861206,2
12.410149335861206,0
12.410149335861206,7
12.410149335861206,54
12.410149335861206,89
12.410149335861206,3
12.410149335861206,35
12.410149335861206,71
12.502522230148315,7
12.502522230148315,2
12.502522230148315,0
12.502522230148315,0
12.502522230148315,2
12.502522230148315,32
12.502522230148315,50
12.502522230148315,0
12.502522230148315,2
12.597118854522705,0
12.597118854522705,0
12.597118854522705,0
12.597118854522705,21
12.597118854522705,77
12.597118854522705,5
12.597118854522705,2
12.597118854522705,3
12.597118854522705,7
12.69211745262146,14
12.69211745262146,0
12.69211745262146,0
12.69211745262146,15
12.69211745262146,44
12.69211745262146,3
12.69211745262146,2
12.69211745262146,63
12.69211745262146,146
12.69211745262146,24
12.797167539596558,3
12.797167539596558,0
12.797167539596558,6
12.797167539596558,0
12.797167539596558,0
12.797167539596558,0
12.797167539596558,2
12.797167539596558,0
12.797167539596558,17
12.797167539596558,13
12.901169538497925,8
12.901169538497925,5
12.901169538497925,8
12.901169538497925,0
12.901169538497925,0
12.901169538497925,0
12.901169538497925,0
12.901169538497925,0
12.901169538497925,1
12.901169538497925,0
13.011380910873413,0
13.011380910873413,1
13.011380910873413,0
13.011380910873413,0
13.011380910873413,0
13.011380910873413,0
13.011380910873413,0
13.011380910873413,0
13.011380910873413,0
13.011380910873413,1
13.011380910873413,0
13.105441331863403,2
13.105441331863403,0
13.105441331863403,0
13.105441331863403,0
13.105441331863403,8
13.105441331863403,0
13.105441331863403,1
13.105441331863403,0
13.105441331863403,4
13.105441331863403,0
13.216685056686401,8
13.216685056686401,0
13.216685056686401,0
13.216685056686401,1
13.216685056686401,4
13.216685056686401,0
13.216685056686401,8
13.216685056686401,0
13.216685056686401,2
13.216685056686401,0
13.313892841339111,3
13.313892841339111,0
13.313892841339111,0
13.313892841339111,0
13.313892841339111,3
13.313892841339111,1
13.313892841339111,0
13.313892841339111,0
13.313892841339111,1
13.313892841339111,24
13.408392190933228,7
13.408392190933228,3
13.408392190933228,0
13.408392190933228,0
13.408392190933228,27
13.408392190933228,0
13.408392190933228,58
13.408392190933228,23
13.408392190933228,12
13.506024599075317,46
13.506024599075317,19
13.506024599075317,7
13.506024599075317,0
13.506024599075317,4
13.506024599075317,20
13.506024599075317,18
13.506024599075317,2
13.506024599075317,40
13.598652124404907,5
13.598652124404907,0
13.598652124404907,4
13.598652124404907,0
13.598652124404907,2
13.598652124404907,7
13.598652124404907,0
13.598652124404907,15
13.598652124404907,2
13.609548568725586,1
13.609548568725586,0
13.701593160629272,2
13.701593160629272,1
13.701593160629272,1
13.701593160629272,0
13.701593160629272,0
13.701593160629272,0
13.701593160629272,3
13.701593160629272,0
13.701593160629272,1
13.789712190628052,0
13.789712190628052,0
13.789712190628052,3
13.789712190628052,0
13.789712190628052,0
13.789712190628052,0
13.789712190628052,0
13.789712190628052,0
13.789712190628052,0
13.789712190628052,0
13.887572526931763,0
13.887572526931763,0
13.887572526931763,0
13.887572526931763,0
13.887572526931763,0
13.887572526931763,0
13.887572526931763,0
13.887572526931763,0
13.887572526931763,0
13.984098434448242,0
13.984098434448242,1
13.984098434448242,0
13.984098434448242,0
13.984098434448242,0
13.984098434448242,0
13.984098434448242,0
13.984098434448242,0
13.984098434448242,0
13.984098434448242,0
14.091228485107422,0
14.091228485107422,0
14.091228485107422,0
14.091228485107422,0
14.091228485107422,0
14.091228485107422,0
14.091228485107422,0
14.091228485107422,0
14.091228485107422,0
14.182753324508667,0
14.182753324508667,0
14.182753324508667,1
14.182753324508667,9
14.18843412399292,0
14.18843412399292,0
14.18843412399292,1
14.18843412399292,0
14.18843412399292,0
14.18843412399292,0
14.283686399459839,1
14.283686399459839,0
14.283686399459839,0
14.283686399459839,0
14.283686399459839,0
14.283686399459839,0
14.283686399459839,0
14.283686399459839,0
14.283686399459839,0
14.379475116729736,0
14.379475116729736,0
14.379475116729736,0
14.379475116729736,0
14.379475116729736,0
14.379475116729736,2
14.379475116729736,0
14.379475116729736,0
14.379475116729736,0
14.379475116729736,0
14.486044883728027,0
14.486044883728027,0
14.486044883728027,0
14.486044883728027,0
14.486044883728027,5
14.486044883728027,0
14.486044883728027,0
14.486044883728027,3
14.486044883728027,1
14.486044883728027,0
14.58565902709961,0
14.58565902709961,0
14.58565902709961,0
14.58565902709961,0
14.58565902709961,0
14.58565902709961,0
14.58565902709961,0
14.58565902709961,0
14.58565902709961,0
14.58565902709961,0
14.681180000305176,0
14.681180000305176,0
14.681180000305176,0
14.681180000305176,0
14.681180000305176,0
14.681180000305176,0
14.681180000305176,0
14.681180000305176,0
14.681180000305176,3
14.681180000305176,0
14.78694462776184,0
14.78694462776184,0
14.78694462776184,0
14.78694462776184,0
14.78694462776184,1
14.78694462776184,0
14.78694462776184,0
14.78694462776184,0
14.78694462776184,0
14.78694462776184,0
14.881443738937378,0
14.881443738937378,1
14.881443738937378,0
14.881443738937378,0
14.881443738937378,0
14.881443738937378,0
14.881443738937378,3
14.881443738937378,0
14.881443738937378,0
14.978394985198975,0
14.978394985198975,0
14.978394985198975,0
14.978394985198975,0
14.978394985198975,0
14.978394985198975,0
14.978394985198975,0
14.978394985198975,1
14.978394985198975,0
15.07611083984375,1
15.07611083984375,2
15.07611083984375,0
15.07611083984375,0
15.07611083984375,1
15.07611083984375,4
15.07611083984375,6
15.07611083984375,14
15.07611083984375,6
15.07611083984375,0
15.172906637191772,0
15.172906637191772,2
15.172906637191772,0
15.172906637191772,0
15.172906637191772,0
15.172906637191772,2
15.172906637191772,2
15.172906637191772,1
15.172906637191772,0
15.279421091079712,8
15.279421091079712,2
15.279421091079712,0
15.279421091079712,25
15.279421091079712,35
15.279421091079712,2
15.279421091079712,11
15.279421091079712,0
15.279421091079712,26
15.279421091079712,0
15.279421091079712,6
15.378717422485352,39
15.378717422485352,53
15.378717422485352,33
15.378717422485352,25
15.378717422485352,11
15.378717422485352,9
15.378717422485352,36
15.378717422485352,0
15.378717422485352,0
15.378717422485352,2
15.475289344787598,13
15.475289344787598,11
15.475289344787598,40
15.475289344787598,25
15.475289344787598,14
15.475289344787598,0
15.475289344787598,3
15.475289344787598,39
15.475289344787598,0
15.475289344787598,24
15.582854509353638,0
15.582854509353638,7
15.582854509353638,16
15.582854509353638,19
15.582854509353638,0
15.582854509353638,0
15.582854509353638,37
15.582854509353638,34
15.582854509353638,0
15.584859371185303,1
15.682169437408447,0
15.682169437408447,1
15.682169437408447,2
15.682169437408447,0
15.682169437408447,1
15.682169437408447,30
15.682169437408447,4
15.682169437408447,0
15.682169437408447,0
15.682169437408447,4
15.777361869812012,6
15.777361869812012,2
15.777361869812012,6
15.777361869812012,12
15.777361869812012,2
15.777361869812012,13
15.777361869812012,20
15.777361869812012,11
15.777361869812012,14
15.881489753723145,10
15.881489753723145,8
15.881489753723145,1
15.881489753723145,3
15.881489753723145,0
15.881489753723145,1
15.881489753723145,0
15.881489753723145,2
15.881489753723145,4
15.881489753723145,95
15.978904247283936,94
15.978904247283936,32
15.978904247283936,3
15.978904247283936,10
15.978904247283936,11
15.978904247283936,13
15.978904247283936,9
15.978904247283936,4
15.978904247283936,0
15.978904247283936,0
16.0758855342865,0
16.0758855342865,16
16.0758855342865,17
16.0758855342865,43
16.0758855342865,0
16.0758855342865,6
16.0758855342865,0
16.0758855342865,12
16.0758855342865,47
16.17623257637024,0
16.17623257637024,46
16.17623257637024,8
16.17623257637024,82
16.17623257637024,15
16.17623257637024,3
16.17623257637024,0
16.17623257637024,0
16.17623257637024,3
16.176995277404785,8
16.271689891815186,79
16.271689891815186,0
16.271689891815186,1
16.271689891815186,13
16.271689891815186,15
16.271689891815186,0
16.271689891815186,0
16.271689891815186,1
16.271689891815186,11
16.271689891815186,6
16.382853269577026,7
16.382853269577026,0
16.382853269577026,0
16.382853269577026,0
16.382853269577026,0
16.382853269577026,11
16.382853269577026,0
16.382853269577026,4
16.382853269577026,0
16.382853269577026,0
16.47856879234314,21
16.47856879234314,17
16.47856879234314,4
16.47856879234314,11
16.47856879234314,5
16.47856879234314,2
16.47856879234314,19
16.47856879234314,65
16.47856879234314,4
16.47856879234314,2
16.58517050743103,43
16.58517050743103,11
16.58517050743103,0
16.58517050743103,0
16.58517050743103,24
16.58517050743103,21
16.58517050743103,4
16.58517050743103,19
16.58517050743103,17
16.58517050743103,2
16.685674905776978,1
16.685674905776978,0
16.685674905776978,17
16.685674905776978,1
16.685674905776978,0
16.685674905776978,15
16.685674905776978,2
16.685674905776978,5
16.685674905776978,2
16.685674905776978,0
16.781627416610718,36
16.781627416610718,1
16.781627416610718,4
16.781627416610718,0
16.781627416610718,0
16.781627416610718,0
16.781627416610718,0
16.781627416610718,0
16.781627416610718,3
16.781627416610718,0
16.891695499420166,0
16.891695499420166,3
16.891695499420166,1
16.891695499420166,0
16.891695499420166,27
16.891695499420166,22
16.891695499420166,3
16.891695499420166,1
16.891695499420166,9
16.891695499420166,1
16.992798805236816,0
16.992798805236816,1
16.992798805236816,0
16.992798805236816,0
16.992798805236816,4
16.992798805236816,16
16.992798805236816,0
16.992798805236816,3
16.992798805236816,0
16.992798805236816,0
17.08416247367859,0
17.08416247367859,0
17.08416247367859,0
17.08416247367859,0
17.08416247367859,0
17.08416247367859,0
17.08416247367859,1
17.08416247367859,10
17.08416247367859,0
17.08416247367859,0
17.1956844329834,0
17.1956844329834,3
17.1956844329834,0
17.1956844329834,0
17.1956844329834,0
17.1956844329834,0
17.1956844329834,0
17.1956844329834,0
17.1956844329834,0
17.1956844329834,1
17.301124811172485,0
17.301124811172485,0
17.301124811172485,0
17.301124811172485,1
17.301124811172485,5
17.301124811172485,5
17.301124811172485,0
17.301124811172485,31
17.301124811172485,47
17.301124811172485,6
17.40376353263855,3
17.40376353263855,10
17.40376353263855,1
17.40376353263855,0
17.40376353263855,0
17.40376353263855,4
17.40376353263855,0
17.40376353263855,5
17.40376353263855,5
17.40376353263855,0
17.40376353263855,0
17.502997398376465,0
17.502997398376465,3
17.502997398376465,14
17.502997398376465,122
17.502997398376465,5
17.502997398376465,507
17.502997398376465,436
17.502997398376465,99
17.502997398376465,145
17.602428197860718,257
17.602428197860718,19
17.602428197860718,254
17.602428197860718,160
17.602428197860718,442
17.602428197860718,69
17.602428197860718,106
17.602428197860718,68
17.602428197860718,0
17.602428197860718,1
17.701606035232544,0
17.701606035232544,0
17.701606035232544,0
17.701606035232544,8
17.701606035232544,151
17.701606035232544,141
17.701606035232544,220
17.701606035232544,444
17.701606035232544,88
17.701606035232544,57
17.80212712287903,121
17.80212712287903,64
17.80212712287903,1
17.80212712287903,175
17.80212712287903,67
17.80212712287903,0
17.80212712287903,37
17.80212712287903,236
17.80212712287903,291
17.80212712287903,426
17.909883737564087,471
17.909883737564087,91
17.909883737564087,206
17.909883737564087,55
17.909883737564087,6
17.909883737564087,244
17.909883737564087,273
17.909883737564087,206
17.909883737564087,144
17.909883737564087,16
18.012778997421265,275
18.012778997421265,131
18.012778997421265,142
18.012778997421265,582
18.012778997421265,106
18.012778997421265,7
18.012778997421265,13
18.012778997421265,234
18.012778997421265,198
18.012778997421265,6
18.118354320526123,133
18.118354320526123,57
18.118354320526123,312
18.118354320526123,128
18.118354320526123,183
18.118354320526123,265
18.118354320526123,45
18.118354320526123,41
18.118354320526123,408
18.118354320526123,550
18.21276569366455,32
18.21276569366455,93
18.21276569366455,530
18.21276569366455,209
18.21276569366455,152
18.21276569366455,33
18.21276569366455,0
18.21276569366455,238
18.21276569366455,209
18.21276569366455,206
18.315970420837402,295
18.315970420837402,264
18.315970420837402,65
18.315970420837402,0
18.315970420837402,171
18.315970420837402,249
18.315970420837402,143
18.315970420837402,112
18.317975759506226,131
18.317975759506226,97
18.403976440429688,146
18.403976440429688,193
18.403976440429688,106
18.403976440429688,156
18.403976440429688,0
18.403976440429688,140
18.403976440429688,65
18.403976440429688,364
18.403976440429688,364
18.50763964653015,202
18.50763964653015,133
18.50763964653015,28
18.50763964653015,126
18.50763964653015,211
18.50763964653015,1
18.509645223617554,60
18.509645223617554,127
18.509645223617554,101
18.59652066230774,39
18.59652066230774,17
18.59652066230774,20
18.59652066230774,165
18.59652066230774,174
18.59652066230774,44
18.59652066230774,57
18.59652066230774,104
18.59652066230774,84
18.59652066230774,49
18.691757678985596,230
18.691757678985596,79
18.691757678985596,58
18.691757678985596,55
18.691757678985596,27
18.691757678985596,327
18.691757678985596,7
18.691757678985596,157
18.691757678985596,75
18.789716958999634,42
18.789716958999634,293
18.789716958999634,280
18.789716958999634,184
18.789716958999634,153
18.789716958999634,64
18.789716958999634,180
18.789716958999634,215
18.789716958999634,228
18.789716958999634,60
18.89344596862793,81
18.89344596862793,62
18.89344596862793,7
18.89344596862793,167
18.89344596862793,114
18.89344596862793,283
18.89344596862793,10
18.89344596862793,1
18.89344596862793,0
18.993672370910645,164
18.993672370910645,113
18.993672370910645,67
18.993672370910645,0
18.993672370910645,44
18.993672370910645,0
18.993672370910645,97
18.993672370910645,211
18.993672370910645,39
18.993672370910645,1
19.09115242958069,99
19.09115242958069,0
19.09115242958069,38
19.09115242958069,146
19.09115242958069,66
19.09115242958069,36
19.09115242958069,50
19.09115242958069,25
19.09115242958069,25
19.184040307998657,130
19.184040307998657,73
19.184040307998657,2
19.184040307998657,174
19.184040307998657,51
19.184040307998657,67
19.184040307998657,142
19.184040307998657,115
19.184040307998657,50
19.184040307998657,75
19.290472507476807,104
19.290472507476807,1
19.290472507476807,40
19.290472507476807,9
19.290472507476807,60
19.290472507476807,24
19.290472507476807,159
19.290472507476807,106
19.290472507476807,257
19.290472507476807,79
19.391927003860474,0
19.391927003860474,52
19.391927003860474,57
19.391927003860474,25
19.391927003860474,14
19.391927003860474,122
19.391927003860474,6
19.39318871498108,123
19.39318871498108,2
19.39318871498108,75
19.48531937599182,42
19.48531937599182,18
19.48531937599182,211
19.48531937599182,50
19.48531937599182,49
19.48531937599182,36
19.48531937599182,37
19.48531937599182,9
19.48531937599182,272
19.580031871795654,42
19.580031871795654,31
19.580031871795654,203
19.580031871795654,86
19.580031871795654,3
19.580031871795654,0
19.580031871795654,8
19.580031871795654,127
19.580031871795654,31
19.580031871795654,60
19.69523525238037,49
19.69523525238037,205
19.69523525238037,224
19.69523525238037,107
19.69523525238037,247
19.69523525238037,70
19.69523525238037,108
19.69523525238037,79
19.69523525238037,24
19.69523525238037,88
19.786701679229736,10
19.786701679229736,197
19.786701679229736,210
19.786701679229736,56
19.786701679229736,71
19.786701679229736,0
19.786701679229736,128
19.786701679229736,0
19.786701679229736,19
19.786701679229736,48
19.882479190826416,29
19.882479190826416,26
19.882479190826416,20
19.882479190826416,34
19.882479190826416,64
19.882479190826416,81
19.882479190826416,32
19.882479190826416,26
19.882479190826416,113
19.984193325042725,271
19.984193325042725,100
19.984193325042725,23
19.984193325042725,136
19.984193325042725,1
19.984193325042725,268
19.984193325042725,232
19.984193325042725,169
19.984193325042725,79
19.984193325042725,95
20.08038067817688,1
20.08038067817688,9
20.08038067817688,128
20.08038067817688,0
20.08038067817688,71
20.08038067817688,71
20.082385778427124,66
20.082385778427124,44
20.082385778427124,63
20.17932653427124,38
20.17932653427124,7
20.17932653427124,66
20.17932653427124,47
20.17932653427124,15
20.17932653427124,7
20.17932653427124,50
20.17932653427124,16
20.17932653427124,34
20.17932653427124,22
20.28044033050537,156
20.28044033050537,501
20.28044033050537,0
20.28044033050537,36
20.28044033050537,4
20.28044033050537,98
20.28044033050537,473
20.28044033050537,12
20.28044033050537,76
20.28044033050537,2
20.376634120941162,0
20.376634120941162,250
20.376634120941162,222
20.376634120941162,5
20.376634120941162,50
20.376634120941162,42
20.376634120941162,66
20.376634120941162,0
20.376634120941162,64
20.376634120941162,2
20.487025260925293,21
20.487025260925293,86
20.487025260925293,6
20.487025260925293,2
20.487025260925293,27
20.487025260925293,104
20.487025260925293,14
20.488030195236206,122
20.488030195236206,192
20.488030195236206,32
20.589630126953125,56
20.589630126953125,10
20.589630126953125,222
20.589630126953125,213
20.590736865997314,54
20.590736865997314,7
20.590736865997314,57
20.590736865997314,34
20.590736865997314,257
20.590736865997314,55
20.693994998931885,9
20.693994998931885,112
20.693994998931885,168
20.693994998931885,198
20.693994998931885,25
20.693994998931885,72
20.693994998931885,66
20.693994998931885,70
20.693994998931885,103
20.693994998931885,92
20.789247512817383,101
20.789247512817383,69
20.789247512817383,2
20.789247512817383,12
20.789247512817383,9
20.789247512817383,13
20.789247512817383,45
20.789247512817383,84
20.789247512817383,69
20.789247512817383,71
20.902679920196533,205
20.902679920196533,10
20.902679920196533,34
20.902679920196533,29
20.902679920196533,25
20.902679920196533,48
20.902679920196533,51
20.902679920196533,270
20.902679920196533,100
20.902679920196533,10
20.902679920196533,38
21.006190061569214,9
21.006190061569214,0
21.006190061569214,0
21.006190061569214,57
21.006190061569214,27
21.006190061569214,142
21.006190061569214,21
21.006190061569214,19
21.006190061569214,9
21.006190061569214,4
21.109667539596558,10
21.109667539596558,18
21.109667539596558,0
21.109667539596558,15
21.109667539596558,0
21.109667539596558,0
21.109667539596558,0
21.109667539596558,1
21.109667539596558,4
21.109667539596558,6
21.216256141662598,2
21.216256141662598,4
21.216256141662598,0
21.216256141662598,8
21.216256141662598,15
21.216256141662598,56
21.216256141662598,5
21.216256141662598,15
21.216256141662598,0
21.216256141662598,0
21.31295371055603,0
21.31295371055603,73
21.31295371055603,48
21.31295371055603,35
21.31295371055603,73
21.31295371055603,24
21.31295371055603,1
21.31295371055603,86
21.31295371055603,67
21.31295371055603,31
21.31295371055603,41
21.424200296401978,47
21.424200296401978,14
21.424200296401978,79
21.424200296401978,126
21.424200296401978,38
21.424200296401978,1
21.424200296401978,4
21.424200296401978,0
21.424200296401978,0
21.424200296401978,82
21.529850959777832,107
21.529850959777832,47
21.529850959777832,40
21.529850959777832,12
21.529850959777832,0
21.529850959777832,0
21.529850959777832,0
21.529850959777832,0
21.529850959777832,39
21.529850959777832,88
21.63307547569275,1
21.63307547569275,0
21.63307547569275,2
21.63307547569275,2
21.63307547569275,11
21.63307547569275,0
21.63307547569275,13
21.63307547569275,0
21.63307547569275,21
21.63307547569275,0
21.73709201812744,17
21.73709201812744,0
21.73709201812744,31
21.73709201812744,174
21.73709201812744,20
21.73709201812744,25
21.73709201812744,9
21.73709201812744,4
21.73709201812744,52
21.73709201812744,25
21.836162567138672,41
21.836162567138672,11
21.836162567138672,5
21.836162567138672,18
21.836162567138672,8
21.836162567138672,82
21.836162567138672,47
21.836162567138672,126
21.836162567138672,55
21.836162567138672,0
21.935516834259033,0
21.936524152755737,50
21.936524152755737,84
21.936524152755737,0
21.936524152755737,89
21.936524152755737,21
21.936524152755737,21
21.936524152755737,27
21.936524152755737,9
21.936524152755737,4
22.029205799102783,11
22.029205799102783,6
22.029205799102783,0
22.029205799102783,135
22.029205799102783,56
22.029205799102783,30
22.029205799102783,2
22.029205799102783,3
22.029205799102783,55
22.029205799102783,157
22.13687300682068,92
22.13687300682068,3
22.13687300682068,16
22.13687300682068,5
22.13687300682068,2
22.13687300682068,2
22.13687300682068,90
22.13687300682068,215
22.13687300682068,70
22.13687300682068,3
22.239017486572266,27
22.239017486572266,62
22.239017486572266,126
22.239017486572266,50
22.239017486572266,57
22.239017486572266,68
22.239017486572266,7
22.239017486572266,49
22.239017486572266,7
22.239017486572266,18
22.337241172790527,42
22.337241172790527,10
22.337241172790527,0
22.337241172790527,56
22.337241172790527,58
22.337241172790527,5
22.337241172790527,21
22.337241172790527,18
22.337241172790527,36
22.337241172790527,22
22.438045978546143,204
22.438045978546143,0
22.438045978546143,1
22.438045978546143,0
22.438045978546143,32
22.438045978546143,19
22.438045978546143,0
22.438045978546143,61
22.438045978546143,159
22.538976907730103,58
22.538976907730103,0
22.538976907730103,6
22.538976907730103,5
22.538976907730103,1
22.538976907730103,27
22.538976907730103,56
22.538976907730103,19
22.538976907730103,36
22.538976907730103,72
22.637702465057373,18
22.637702465057373,0
22.637702465057373,4
22.637702465057373,7
22.637702465057373,4
22.637702465057373,0
22.637702465057373,0
22.637702465057373,3
22.637702465057373,0
22.637702465057373,11
22.737900018692017,0
22.737900018692017,0
22.737900018692017,1
22.737900018692017,18
22.737900018692017,13
22.737900018692017,0
22.737900018692017,13
22.737900018692017,0
22.737900018692017,3
22.737900018692017,0
22.836731672286987,4
22.836731672286987,45
22.836731672286987,44
22.836731672286987,0
22.836731672286987,13
22.836731672286987,3
22.836731672286987,14
22.836731672286987,0
22.836731672286987,11
22.93203330039978,3
22.93203330039978,6
22.93203330039978,15
22.93203330039978,0
22.93203330039978,0
22.93203330039978,0
22.93203330039978,0
22.93203330039978,0
22.93203330039978,11
22.93203330039978,18
23.02800178527832,17
23.02800178527832,0
23.02800178527832,0
23.02800178527832,10
23.02800178527832,21
23.02800178527832,12
23.02800178527832,8
23.02800178527832,153
23.02800178527832,203
23.12234139442444,75
23.12234139442444,23
23.12234139442444,14
23.12234139442444,19
23.12234139442444,10
23.12234139442444,48
23.12234139442444,5
23.12234139442444,43
23.12234139442444,126
23.20907688140869,24
23.20907688140869,11
23.20907688140869,0
23.20907688140869,49
23.20907688140869,13
23.20907688140869,10
23.20907688140869,0
23.20907688140869,118
23.20907688140869,27
23.20907688140869,0
23.319488286972046,48
23.319488286972046,12
23.319488286972046,5
23.319488286972046,23
23.319488286972046,35
23.319488286972046,71
23.319488286972046,1
23.319488286972046,0
23.319488286972046,15
23.319488286972046,9
23.41451358795166,25
23.41451358795166,0
23.41451358795166,0
23.41451358795166,9
23.41451358795166,0
23.41451358795166,0
23.41451358795166,36
23.41451358795166,52
23.41451358795166,43
23.5140700340271,13
23.5140700340271,6
23.5140700340271,3
23.5140700340271,22
23.5140700340271,0
23.5140700340271,6
23.5140700340271,0
23.5140700340271,4
23.5140700340271,45
23.5140700340271,18
23.605250120162964,34
23.605250120162964,24
23.605250120162964,23
23.605250120162964,7
23.605250120162964,35
23.605250120162964,19
23.605250120162964,4
23.605250120162964,13
23.605250120162964,2
23.700470447540283,7
23.700470447540283,0
23.700470447540283,76
23.700470447540283,0
23.700470447540283,37
23.700470447540283,9
23.700470447540283,5
23.700470447540283,28
23.700470447540283,7
23.796157360076904,0
23.796157360076904,13
23.796157360076904,67
23.796157360076904,3
23.796157360076904,1
23.796157360076904,0
23.796157360076904,4
23.796157360076904,12
23.796157360076904,14
23.88806462287903,0
23.88806462287903,0
23.88806462287903,36
23.89007019996643,58
23.89007019996643,26
23.89007019996643,51
23.89007019996643,6
23.89007019996643,10
23.89007019996643,4
23.97224736213684,23
23.97224736213684,27
23.982336282730103,65
23.982336282730103,42
23.982336282730103,15
23.982336282730103,20
23.982336282730103,36
23.982336282730103,22
23.982336282730103,0
23.982336282730103,0
24.068154335021973,29
24.068154335021973,15
24.068154335021973,60
24.068154335021973,58
24.068154335021973,26
24.068154335021973,63
24.068154335021973,6
24.068154335021973,32
24.068154335021973,87
24.167993307113647,29
24.167993307113647,67
24.167993307113647,3
24.167993307113647,24
24.167993307113647,134
24.167993307113647,33
24.167993307113647,0
24.167993307113647,0
24.167993307113647,64
24.258991479873657,47
24.258991479873657,38
24.258991479873657,19
24.258991479873657,39
24.258991479873657,37
24.258991479873657,10
24.258991479873657,0
24.258991479873657,20
24.258991479873657,15
24.258991479873657,1
24.36864686012268,47
24.36864686012268,0
24.36864686012268,1
24.36864686012268,17
24.36864686012268,50
24.36864686012268,28
24.36864686012268,70
24.36864686012268,45
24.36864686012268,0
24.36864686012268,2
24.46650004386902,148
24.46650004386902,145
24.46650004386902,31
24.46650004386902,0
24.46650004386902,0
24.46650004386902,6
24.46650004386902,27
24.46650004386902,0
24.46650004386902,64
24.562108278274536,43
24.562108278274536,19
24.562108278274536,12
24.562108278274536,0
24.562108278274536,9
24.562108278274536,5
24.562108278274536,4
24.562108278274536,24
24.562108278274536,32
24.562108278274536,25
24.656532526016235,45
24.656532526016235,51
24.656532526016235,10
24.656532526016235,4
24.656532526016235,0
24.656532526016235,18
24.656532526016235,27
24.656532526016235,27
24.656532526016235,12
24.656532526016235,7
24.769181966781616,4
24.769181966781616,1
24.769181966781616,19
24.769181966781616,54
24.769181966781616,111
24.769181966781616,129
24.769181966781616,17
24.769181966781616,15
24.769181966781616,4
24.769181966781616,35
24.865554094314575,86
24.865554094314575,9
24.865554094314575,6
24.865554094314575,0
24.865554094314575,0
24.865554094314575,27
24.865554094314575,103
24.865554094314575,5
24.865554094314575,10
24.96689796447754,1
24.96689796447754,2
24.96689796447754,11
24.96689796447754,0
24.96689796447754,0
24.96689796447754,2
24.96689796447754,26
24.96689796447754,20
24.96689796447754,0
24.96689796447754,25
25.054428815841675,67
25.054428815841675,17
25.054428815841675,0
25.054428815841675,4
25.054428815841675,5
25.054428815841675,0
25.054428815841675,46
25.054428815841675,56
25.054428815841675,42
25.054428815841675,0
25.164403915405273,22
25.164403915405273,0
25.164403915405273,35
25.164403915405273,19
25.164403915405273,1
25.164403915405273,23
25.164403915405273,0
25.164403915405273,30
25.164403915405273,74
25.164403915405273,5
25.264136791229248,0
25.264136791229248,2
25.264136791229248,0
25.264136791229248,10
25.264136791229248,0
25.264136791229248,3
25.264136791229248,0
25.264136791229248,1
25.264136791229248,56
25.3591890335083,27
25.3591890335083,2
25.3591890335083,16
25.3591890335083,3
25.3591890335083,35
25.3591890335083,4
25.3591890335083,0
25.3591890335083,6
25.3591890335083,0
25.3591890335083,38
25.4573073387146,3
25.4573073387146,17
25.4573073387146,8
25.4573073387146,0
25.4573073387146,10
25.4573073387146,35
25.4573073387146,19
25.4573073387146,164
25.4573073387146,18
25.549230098724365,2
25.549230098724365,1
25.549230098724365,30
25.549230098724365,0
25.549230098724365,21
25.549230098724365,14
25.549230098724365,39
25.549230098724365,8
25.549230098724365,0
25.645099878311157,34
25.645099878311157,40
25.645099878311157,91
25.645099878311157,112
25.645099878311157,0
25.645099878311157,28
25.645099878311157,34
25.645099878311157,12
25.645099878311157,36
25.645099878311157,0
25.74231457710266,52
25.74231457710266,0
25.74231457710266,18
25.74231457710266,59
25.74231457710266,19
25.74231457710266,27
25.74231457710266,0
25.74231457710266,15
25.74231457710266,15
25.74231457710266,3
25.848469257354736,0
25.848469257354736,96
25.848469257354736,133
25.848469257354736,31
25.848469257354736,29
25.848469257354736,11
25.848469257354736,72
25.848469257354736,147
25.848469257354736,1
25.848469257354736,0
25.951578378677368,0
25.951578378677368,6
25.951578378677368,0
25.951578378677368,47
25.951578378677368,76
25.951578378677368,19
25.951578378677368,43
25.951578378677368,41
25.951578378677368,0
25.951578378677368,12
26.04266619682312,1
26.04266619682312,28
26.04266619682312,60
26.04266619682312,12
26.04266619682312,12
26.04266619682312,27
26.04266619682312,1
26.04266619682312,7
26.04266619682312,12
26.04266619682312,44
26.154873847961426,59
26.154873847961426,57
26.154873847961426,1
26.154873847961426,36
26.154873847961426,26
26.154873847961426,15
26.154873847961426,104
26.154873847961426,152
26.154873847961426,58
26.154873847961426,80
26.2640323638916,30
26.2640323638916,49
26.2640323638916,53
26.2640323638916,11
26.2640323638916,59
26.2640323638916,57
26.2640323638916,17
26.2640323638916,20
26.2640323638916,102
26.2640323638916,11
26.360496759414673,140
26.360496759414673,55
26.360496759414673,0
26.360496759414673,0
26.360496759414673,0
26.360496759414673,34
26.360496759414673,48
26.360496759414673,20
26.360496759414673,97
26.360496759414673,42
26.46668004989624,30
26.46668004989624,3
26.46668004989624,26
26.46668004989624,30
26.46668004989624,1
26.46668004989624,60
26.46668004989624,86
26.46668004989624,21
26.46668004989624,9
26.46668004989624,0
26.567878484725952,3
26.567878484725952,10
26.567878484725952,0
26.567878484725952,19
26.567878484725952,27
26.567878484725952,6
26.567878484725952,0
26.567878484725952,5
26.567878484725952,0
26.567878484725952,4
26.671654224395752,14
26.671654224395752,0
26.671654224395752,18
26.671654224395752,5
26.671654224395752,0
26.671654224395752,55
26.671654224395752,87
26.671654224395752,179
26.671654224395752,33
26.671654224395752,3
26.772998094558716,0
26.772998094558716,0
26.772998094558716,32
26.772998094558716,23
26.772998094558716,6
26.772998094558716,0
26.772998094558716,2
26.772998094558716,0
26.772998094558716,62
26.772998094558716,130
26.869055032730103,22
26.869055032730103,25
26.869055032730103,51
26.869055032730103,11
26.869055032730103,1
26.870802402496338,0
26.870802402496338,78
26.870802402496338,2
26.870802402496338,35
26.871302127838135,34
26.969667196273804,51
26.969667196273804,11
26.969667196273804,1
26.969667196273804,10
26.969667196273804,56
26.969667196273804,62
26.969667196273804,78
26.969667196273804,17
26.969667196273804,110
27.068047285079956,228
27.068047285079956,77
27.068047285079956,33
27.068047285079956,0
27.068047285079956,0
27.068047285079956,66
27.068047285079956,36
27.068047285079956,40
27.068047285079956,3
27.068047285079956,50
27.166760206222534,0
27.166760206222534,8
27.166760206222534,29
27.166760206222534,35
27.166760206222534,0
27.166760206222534,40
27.166760206222534,58
27.166760206222534,54
27.166760206222534,53
27.166760206222534,40
27.273893356323242,11
27.273893356323242,11
27.273893356323242,10
27.273893356323242,9
27.273893356323242,19
27.273893356323242,0
27.273893356323242,5
27.273893356323242,0
27.273893356323242,2
27.273893356323242,1
27.374448776245117,4
27.374448776245117,37
27.374448776245117,10
27.374448776245117,33
27.374448776245117,0
27.374448776245117,10
27.374448776245117,2
27.374448776245117,38
27.374448776245117,8
27.374448776245117,35
27.475281238555908,21
27.475281238555908,49
27.475281238555908,15
27.475281238555908,0
27.475281238555908,17
27.475281238555908,2
27.475281238555908,0
27.475281238555908,28
27.475281238555908,53
27.475281238555908,58
27.475281238555908,19
27.584778785705566,8
27.584778785705566,0
27.584778785705566,62
27.584778785705566,77
27.584778785705566,33
27.584778785705566,119
27.584778785705566,199
27.584778785705566,344
27.584778785705566,156
27.584778785705566,160
27.6806640625,123
27.6806640625,87
27.6806640625,76
27.6806640625,140
27.6806640625,49
27.6806640625,86
27.6806640625,38
27.6806640625,68
27.6806640625,452
27.6806640625,261
27.77714705467224,5
27.77714705467224,178
27.77714705467224,172
27.77714705467224,139
27.77714705467224,749
27.77714705467224,248
27.77714705467224,371
27.77714705467224,978
27.77714705467224,101
27.87251305580139,107
27.87251305580139,25
27.87251305580139,13
27.87251305580139,32
27.87251305580139,1
27.87251305580139,28
27.87251305580139,229
27.87251305580139,122
27.87251305580139,330
27.975027322769165,353
27.975027322769165,11
27.975027322769165,7
27.975027322769165,1
27.975027322769165,310
27.975027322769165,304
27.975027322769165,166
27.975027322769165,151
27.975027322769165,161
27.975027322769165,57
28.06396770477295,398
28.06396770477295,968
28.06396770477295,196
28.06396770477295,42
28.06396770477295,54
28.06396770477295,36
28.06396770477295,400
28.06396770477295,271
28.06396770477295,162
28.169248580932617,217
28.169248580932617,287
28.169248580932617,188
28.169248580932617,177
28.169248580932617,18
28.169248580932617,39
28.17125391960144,259
28.17125391960144,312
28.17125391960144,368
28.17125391960144,36
28.26968216896057,322
28.26968216896057,315
28.26968216896057,14
28.26968216896057,39
28.26968216896057,33
28.26968216896057,62
28.26968216896057,65
28.26968216896057,84
28.26968216896057,232
28.26968216896057,13
28.37589144706726,12
28.37589144706726,59
28.37589144706726,28
28.37589144706726,184
28.37589144706726,188
28.37589144706726,0
28.37589144706726,308
28.37589144706726,284
28.380992650985718,166
28.380992650985718,108
28.481477975845337,9
28.48348355293274,19
28.48348355293274,70
28.48348355293274,260
28.48348355293274,468
28.48348355293274,160
28.48348355293274,185
28.48348355293274,128
28.48348355293274,0
28.48348355293274,20
28.58379626274109,95
28.58379626274109,42
28.58379626274109,115
28.58379626274109,355
28.588406562805176,155
28.588406562805176,82
28.588406562805176,2
28.588406562805176,60
28.588406562805176,92
28.588406562805176,91
28.588406562805176,60
28.689437866210938,169
28.689437866210938,67
28.689437866210938,121
28.689437866210938,270
28.689437866210938,10
28.689437866210938,91
28.689437866210938,17
28.691442489624023,379
28.691442489624023,77
28.691442489624023,263
28.779125452041626,0
28.779125452041626,5
28.779125452041626,126
28.779125452041626,38
28.779125452041626,5
28.779125452041626,63
28.779125452041626,182
28.779125452041626,42
28.779125452041626,303
28.886073112487793,83
28.886073112487793,326
28.886073112487793,80
28.886073112487793,26
28.886073112487793,254
28.886073112487793,26
28.886073112487793,43
28.886073112487793,20
28.89067792892456,209
28.89067792892456,78
28.987654447555542,2
28.987654447555542,68
28.987654447555542,23
28.987654447555542,33
28.987654447555542,47
28.987654447555542,74
28.987654447555542,123
28.987654447555542,47
28.987654447555542,66
28.987654447555542,93
29.08025550842285,118
29.08025550842285,39
29.08025550842285,129
29.08025550842285,13
29.08025550842285,97
29.08025550842285,94
29.08025550842285,30
29.08025550842285,53
29.08025550842285,86
29.08025550842285,32
29.184409618377686,125
29.184409618377686,396
29.184409618377686,35
29.184409618377686,0
29.184409618377686,150
29.184409618377686,172
29.184409618377686,75
29.184409618377686,77
29.184409618377686,7
29.286901712417603,174
29.286901712417603,11
29.286901712417603,78
29.286901712417603,49
29.286901712417603,58
29.286901712417603,79
29.286901712417603,137
29.286901712417603,30
29.286901712417603,60
29.286901712417603,153
29.392624616622925,35
29.392624616622925,23
29.392624616622925,96
29.392624616622925,67
29.392624616622925,138
29.392624616622925,7
29.392624616622925,18
29.39462971687317,247
29.39462971687317,172
29.39462971687317,110
29.39462971687317,1
29.5003604888916,91
29.5003604888916,200
29.5003604888916,68
29.5003604888916,24
29.5003604888916,457
29.5003604888916,29
29.5003604888916,99
29.5003604888916,7
29.5003604888916,58
29.5003604888916,50
29.5890531539917,48
29.5890531539917,254
29.5890531539917,19
29.5890531539917,42
29.5890531539917,100
29.5890531539917,265
29.5890531539917,36
29.5890531539917,81
29.5890531539917,20
29.5890531539917,8
29.70539927482605,68
29.70539927482605,20
29.70539927482605,0
29.70539927482605,104
29.70539927482605,130
29.70539927482605,299
29.70539927482605,32
29.70539927482605,93
29.70539927482605,128
29.70539927482605,175
29.796933889389038,99
29.796933889389038,53
29.796933889389038,14
29.796933889389038,19
29.796933889389038,37
29.796933889389038,527
29.796933889389038,39
29.796933889389038,45
29.796933889389038,151
29.796933889389038,51
29.892256021499634,28
29.892256021499634,587
29.892256021499634,147
29.892256021499634,0
29.892256021499634,57
29.892256021499634,44
29.892256021499634,114
29.892256021499634,312
29.892256021499634,140
29.997673988342285,16
29.997673988342285,30
29.997673988342285,238
29.997673988342285,405
29.997673988342285,29
29.997673988342285,112
29.997673988342285,39
29.997673988342285,63
29.997673988342285,251
30.08251976966858,182
30.08251976966858,126
30.08251976966858,21
30.08251976966858,0
30.08251976966858,76
30.08251976966858,248
30.08251976966858,46
30.08251976966858,15
30.08251976966858,275
30.08251976966858,148
30.18327307701111,138
30.18327307701111,18
30.18327307701111,78
30.18327307701111,42
30.18327307701111,143
30.18327307701111,108
30.18327307701111,20
30.18327307701111,152
30.18327307701111,98
30.28796935081482,45
30.28796935081482,47
30.28796935081482,0
30.28796935081482,41
30.28796935081482,8
30.28796935081482,0
30.28796935081482,8
30.28796935081482,154
30.28796935081482,135
30.28796935081482,46
30.28796935081482,36
30.39887809753418,4
30.39887809753418,3
30.39887809753418,156
30.39887809753418,24
30.39887809753418,42
30.39887809753418,2
30.39887809753418,102
30.39887809753418,37
30.39887809753418,4
30.39887809753418,296
30.49453043937683,25
30.49453043937683,161
30.49453043937683,52
30.49453043937683,21
30.49453043937683,12
30.49453043937683,38
30.49453043937683,142
30.49453043937683,22
30.49453043937683,175
30.49453043937683,31
30.60555672645569,250
30.60555672645569,376
30.60555672645569,91
30.60555672645569,76
30.60555672645569,108
30.60555672645569,19
30.60555672645569,48
30.60555672645569,87
30.60555672645569,57
30.60555672645569,32
30.701127767562866,48
30.701127767562866,103
30.701127767562866,169
30.701127767562866,105
30.701127767562866,73
30.701127767562866,21
30.701127767562866,183
30.701127767562866,251
30.701127767562866,34
30.701127767562866,10
30.79668354988098,131
30.79668354988098,180
30.79668354988098,47
30.79668354988098,79
30.79668354988098,62
30.79668354988098,24
30.79668354988098,29
30.79668354988098,64
30.79668354988098,63
30.79668354988098,44
30.892049551010132,53
30.892049551010132,33
30.892049551010132,28
30.892049551010132,11
30.892049551010132,117
30.892049551010132,83
30.892049551010132,187
30.892049551010132,111
30.892049551010132,0
31.000003337860107,95
31.000003337860107,100
31.000003337860107,68
31.00200867652893,162
31.00200867652893,54
31.00200867652893,30
31.00200867652893,63
31.00200867652893,177
31.00200867652893,393
31.00200867652893,4
31.085010528564453,129
31.085010528564453,98
31.085010528564453,0
31.085010528564453,27
31.085010528564453,0
31.085010528564453,95
31.085010528564453,13
31.085010528564453,290
31.085010528564453,22
31.193841218948364,35
31.193841218948364,34
31.193841218948364,37
31.193841218948364,13
31.193841218948364,37
31.193841218948364,13
31.193841218948364,14
31.1948459148407,115
31.1948459148407,376
31.1948459148407,13
31.29226303100586,59
31.29226303100586,0
31.29226303100586,17
31.29226303100586,9
31.29226303100586,0
31.29226303100586,2
31.29226303100586,34
31.29226303100586,228
31.29226303100586,55
31.29226303100586,15
31.40027689933777,0
31.40027689933777,2
31.40027689933777,0
31.40027689933777,0
31.40027689933777,1
31.40027689933777,0
31.40027689933777,0
31.40027689933777,16
31.40027689933777,52
31.40027689933777,20
31.40027689933777,4
31.496138095855713,3
31.496138095855713,1
31.496138095855713,0
31.496138095855713,19
31.512242555618286,47
31.512242555618286,9
31.512242555618286,0
31.512242555618286,8
31.512242555618286,0
31.512242555618286,1
31.611740827560425,13
31.613746643066406,41
31.613746643066406,12
31.613746643066406,0
31.613746643066406,11
31.613746643066406,13
31.613746643066406,3
31.613746643066406,35
31.613746643066406,0
31.613746643066406,0
31.71607232093811,0
31.71607232093811,2
31.71607232093811,1
31.71607232093811,4
31.71607232093811,1
31.71607232093811,15
31.71607232093811,2
31.71607232093811,27
31.71607232093811,12
31.71607232093811,5
31.814380884170532,1
31.814380884170532,8
31.814380884170532,23
31.814380884170532,5
31.814380884170532,7
31.814380884170532,18
31.814380884170532,26
31.820539951324463,0
31.820539951324463,37
31.820539951324463,6
31.91635036468506,17
31.91635036468506,0
31.924309015274048,36
31.924309015274048,0
31.924309015274048,0
31.924309015274048,3
31.924309015274048,17
31.924309015274048,5
31.924309015274048,7
31.924309015274048,0
32.02705359458923,0
32.02705359458923,9
32.02705359458923,0
32.02705359458923,16
32.02705359458923,6
32.02705359458923,2
32.02705359458923,4
32.02705359458923,15
32.02705359458923,25
32.02705359458923,18
32.129807233810425,0
32.129807233810425,15
32.129807233810425,0
32.129807233810425,0
32.129807233810425,10
32.129807233810425,0
32.129807233810425,2
32.129807233810425,24
32.129807233810425,5
32.129807233810425,22
32.129807233810425,9
32.22590160369873,0
32.22590160369873,4
32.22590160369873,19
32.22590160369873,10
32.22590160369873,5
32.22590160369873,3
32.22590160369873,15
32.22590160369873,15
32.22590160369873,2
32.32078146934509,4
32.32078146934509,0
32.32078146934509,0
32.32078146934509,0
32.32078146934509,0
32.32078146934509,0
32.32078146934509,10
32.32078146934509,10
32.32078146934509,13
32.32078146934509,17
32.42668533325195,8
32.42668533325195,0
32.42668533325195,0
32.42668533325195,14
32.42668533325195,3
32.42668533325195,9
32.42668533325195,14
32.42668533325195,26
32.42668533325195,16
32.42668533325195,7
32.5184862613678,4
32.5184862613678,5
32.5184862613678,0
32.5184862613678,14
32.5184862613678,17
32.5184862613678,1
32.5184862613678,10
32.5184862613678,6
32.5184862613678,0
32.60815644264221,0
32.60815644264221,29
32.60815644264221,4
32.60815644264221,41
32.60815644264221,13
32.60815644264221,0
32.60815644264221,11
32.60815644264221,0
32.60815644264221,26
32.70376634597778,5
32.70376634597778,0
32.70376634597778,6
32.70376634597778,0
32.70376634597778,3
32.70376634597778,0
32.70376634597778,0
32.70376634597778,15
32.70376634597778,20
32.70376634597778,0
32.81571841239929,0
32.81571841239929,0
32.81571841239929,0
32.81571841239929,0
32.81571841239929,1
32.81571841239929,7
32.81571841239929,27
32.81571841239929,0
32.816211223602295,0
32.816211223602295,0
32.91191601753235,0
32.91191601753235,0
32.91191601753235,2
32.91191601753235,3
32.91191601753235,1
32.91191601753235,0
32.91191601753235,4
32.91191601753235,2
32.91191601753235,0
32.91191601753235,0
33.00684452056885,3
33.00684452056885,0
33.00684452056885,0
33.00684452056885,4
33.00684452056885,5
33.00684452056885,0
33.00684452056885,7
33.00684452056885,0
33.00684452056885,5
33.00684452056885,9
33.11945366859436,0
33.11945366859436,2
33.11945366859436,14
33.11945366859436,1
33.11945366859436,6
33.11945366859436,2
33.11945366859436,0
33.11945366859436,14
33.11945366859436,16
33.11945366859436,15
33.22456407546997,11
33.22456407546997,6
33.22456407546997,8
33.22456407546997,11
33.22456407546997,4
33.22456407546997,2
33.22456407546997,0
33.22456407546997,8
33.22456407546997,21
33.22456407546997,4
33.32496190071106,17
33.32496190071106,8
33.32496190071106,22
33.32496190071106,2
33.32496190071106,2
33.32496190071106,4
33.32496190071106,20
33.32496190071106,5
33.32496190071106,0
33.32496190071106,18
33.430567264556885,0
33.430567264556885,10
33.430567264556885,0
33.430567264556885,4
33.430567264556885,4
33.430567264556885,0
33.430567264556885,5
33.430567264556885,11
33.430567264556885,0
33.430567264556885,10
33.430567264556885,6
33.537150859832764,25
33.537150859832764,5
33.537150859832764,0
33.537150859832764,0
33.537150859832764,9
33.537150859832764,1
33.537150859832764,0
33.537150859832764,9
33.537150859832764,0
33.537150859832764,0
33.63703751564026,6
33.63703751564026,1
33.63703751564026,0
33.63703751564026,1
33.63703751564026,11
33.63703751564026,0
33.63703751564026,0
33.63703751564026,1
33.63703751564026,3
33.63703751564026,0
33.736892223358154,5
33.736892223358154,5
33.736892223358154,7
33.736892223358154,0
33.736892223358154,3
33.736892223358154,21
33.736892223358154,19
33.736892223358154,1
33.736892223358154,7
33.736892223358154,4
33.84224772453308,7
33.84224772453308,1
33.84224772453308,6
33.84224772453308,3
33.84224772453308,11
33.84224772453308,9
33.84224772453308,13
33.84224772453308,34
33.84224772453308,0
33.84224772453308,1
33.94303274154663,5
33.94303274154663,1
33.94303274154663,25
33.94303274154663,0
33.94303274154663,0
33.94303274154663,7
33.94303274154663,7
33.94303274154663,8
33.94303274154663,8
33.94303274154663,0
34.03861999511719,0
34.03861999511719,0
34.03861999511719,10
34.03861999511719,10
34.03861999511719,1
34.03861999511719,0
34.03861999511719,0
34.03861999511719,2
34.03861999511719,24
34.14119005203247,3
34.14119005203247,8
34.14119005203247,4
34.14119005203247,18
34.14119005203247,8
34.14119005203247,1
34.14119005203247,14
34.14119005203247,0
34.14119005203247,0
34.14119005203247,0
34.14119005203247,1
34.244024991989136,0
34.244024991989136,0
34.244024991989136,0
34.244024991989136,0
34.244024991989136,0
34.244024991989136,5
34.244024991989136,3
34.244024991989136,0
34.244024991989136,0
34.244024991989136,5
34.35051655769348,0
34.35051655769348,0
34.35051655769348,0
34.35051655769348,0
34.35051655769348,18
34.35051655769348,8
34.35051655769348,11
34.35051655769348,14
34.35051655769348,3
34.35051655769348,0
34.450299978256226,0
34.450299978256226,2
34.450299978256226,0
34.450299978256226,7
34.450299978256226,0
34.450299978256226,2
34.450299978256226,0
34.450299978256226,0
34.450299978256226,0
34.450299978256226,0
34.54580330848694,0
34.54580330848694,9
34.54580330848694,10
34.54580330848694,11
34.54580330848694,2
34.54580330848694,0
34.54580330848694,4
34.54580330848694,1
34.54580330848694,0
34.54580330848694,2
34.65451979637146,0
34.65451979637146,1
34.65451979637146,16
34.65451979637146,6
34.65451979637146,19
34.65451979637146,0
34.65451979637146,21
34.65451979637146,4
34.65451979637146,10
34.65451979637146,7
34.75855207443237,0
34.75855207443237,0
34.75855207443237,22
34.75855207443237,10
34.75855207443237,0
34.75855207443237,5
34.75855207443237,30
34.75855207443237,0
34.75855207443237,2
34.75855207443237,1
34.86083436012268,2
34.86083436012268,0
34.86083436012268,0
34.86083436012268,0
34.86083436012268,0
34.86083436012268,29
34.86083436012268,9
34.86083436012268,11
34.86083436012268,2
34.86083436012268,0
34.95999073982239,0
34.95999073982239,24
34.95999073982239,0
34.95999073982239,5
34.95999073982239,0
34.95999073982239,0
34.95999073982239,20
34.95999073982239,7
34.96199584007263,8
34.96199584007263,0
35.0632107257843,0
35.0632107257843,2
35.0632107257843,9
35.0632107257843,0
35.0632107257843,0
35.0632107257843,12
35.0632107257843,2
35.0632107257843,0
35.0632107257843,0
35.0632107257843,0
35.16394114494324,1
35.16394114494324,0
35.16394114494324,3
35.16394114494324,0
35.16394114494324,1
35.16394114494324,0
35.16394114494324,0
35.16394114494324,0
35.16394114494324,0
35.16394114494324,1
35.259294509887695,0
35.259294509887695,8
35.259294509887695,6
35.259294509887695,42
35.259294509887695,0
35.259294509887695,0
35.259294509887695,5
35.259294509887695,5
35.259294509887695,0
35.35812449455261,11
35.35812449455261,9
35.35812449455261,22
35.35812449455261,3
35.35812449455261,4
35.35812449455261,0
35.35812449455261,3
35.35812449455261,6
35.35812449455261,8
35.35812449455261,1
35.460134983062744,0
35.460134983062744,7
35.460134983062744,7
35.460134983062744,12
35.460134983062744,0
35.460134983062744,0
35.460134983062744,11
35.460134983062744,5
35.460134983062744,0
35.460134983062744,6
35.55593419075012,5
35.55593419075012,0
35.55593419075012,0
35.55593419075012,0
35.55593419075012,1
35.55593419075012,7
35.55593419075012,24
35.55593419075012,0
35.55593419075012,0
35.654053926467896,0
35.654053926467896,9
35.654053926467896,3
35.654053926467896,0
35.654053926467896,1
35.654053926467896,5
35.654053926467896,6
35.654053926467896,0
35.65567708015442,7
35.65567708015442,3
35.750813722610474,1
35.750813722610474,0
35.750813722610474,11
35.750813722610474,0
35.75282859802246,0
35.75282859802246,9
35.75282859802246,2
35.75282859802246,0
35.75282859802246,0
35.851592779159546,0
35.851592779159546,17
35.851592779159546,0
35.851592779159546,12
35.851592779159546,7
35.851592779159546,5
35.851592779159546,0
35.851592779159546,2
35.851592779159546,2
35.85359740257263,4
35.94168400764465,4
35.94168400764465,1
35.94168400764465,0
35.94168400764465,3
35.94168400764465,0
35.94168400764465,9
35.94168400764465,0
35.94168400764465,0
35.94168400764465,18
35.94168400764465,3
36.052616357803345,0
36.052616357803345,3
36.052616357803345,0
36.052616357803345,4
36.052616357803345,0
36.052616357803345,2
36.052616357803345,15
36.052616357803345,2
36.052616357803345,0
36.052616357803345,0
36.14857792854309,4
36.14857792854309,21
36.14857792854309,0
36.14857792854309,0
36.14857792854309,0
36.14857792854309,0
36.14857792854309,1
36.14857792854309,0
36.14857792854309,0
36.14857792854309,0
36.24425792694092,3
36.24425792694092,14
36.24425792694092,8
36.24425792694092,1
36.24425792694092,0
36.24425792694092,5
36.24425792694092,0
36.24425792694092,0
36.24425792694092,0
36.35154938697815,0
36.35154938697815,0
36.35154938697815,0
36.35154938697815,0
36.35154938697815,0
36.35154938697815,0
36.35154938697815,3
36.35154938697815,12
36.35154938697815,0
36.35154938697815,6
36.45063543319702,0
36.45063543319702,0
36.45063543319702,0
36.45063543319702,2
36.45063543319702,0
36.45063543319702,0
36.45063543319702,4
36.45063543319702,0
36.45063543319702,0
36.45063543319702,12
36.54565644264221,2
36.54565644264221,0
36.54565644264221,0
36.54565644264221,0
36.54565644264221,13
36.54565644264221,0
36.54565644264221,7
36.54565644264221,0
36.54565644264221,0
36.54565644264221,2
36.64077877998352,0
36.64077877998352,0
36.64077877998352,4
36.64077877998352,0
36.64077877998352,10
36.64077877998352,0
36.64077877998352,0
36.64077877998352,0
36.64077877998352,1
36.73543357849121,1
36.73543357849121,0
36.73543357849121,0
36.73543357849121,0
36.73543357849121,2
36.73543357849121,0
36.73543357849121,0
36.73543357849121,2
36.73543357849121,0
36.73543357849121,6
36.830679416656494,0
36.830679416656494,8
36.830679416656494,1
36.830679416656494,0
36.830679416656494,0
36.830679416656494,0
36.830679416656494,3
36.830679416656494,9
36.830679416656494,9
36.93627738952637,0
36.93627738952637,0
36.93627738952637,0
36.93627738952637,3
36.93627738952637,0
36.93627738952637,0
36.93627738952637,7
36.93627738952637,24
36.93627738952637,2
36.93627738952637,0
37.03187394142151,3
37.03187394142151,1
37.03187394142151,0
37.03187394142151,0
37.03187394142151,0
37.03187394142151,0
37.03187394142151,3
37.03187394142151,0
37.03187394142151,1
37.126582860946655,5
37.126582860946655,5
37.126582860946655,0
37.126582860946655,0
37.126582860946655,4
37.126582860946655,4
37.126582860946655,0
37.126582860946655,0
37.126582860946655,0
37.126582860946655,3
37.222086668014526,0
37.222086668014526,0
37.222086668014526,1
37.222086668014526,0
37.222086668014526,0
37.222086668014526,0
37.222086668014526,0
37.222086668014526,1
37.222086668014526,0
37.30732822418213,0
37.30732822418213,0
37.30732822418213,10
37.30732822418213,0
37.30732822418213,0
37.32308053970337,0
37.32308053970337,0
37.32308053970337,6
37.32308053970337,0
37.32308053970337,0
37.40281867980957,0
37.40281867980957,0
37.40281867980957,5
37.40281867980957,0
37.40281867980957,0
37.40281867980957,0
37.40281867980957,1
37.40281867980957,21
37.40281867980957,0
37.51450777053833,0
37.51450777053833,0
37.51450777053833,0
37.51450777053833,0
37.51450777053833,0
37.51450777053833,1
37.51450777053833,0
37.51450777053833,0
37.51450777053833,0
37.51450777053833,11
37.608967542648315,0
37.608967542648315,0
37.608967542648315,6
37.608967542648315,0
37.608967542648315,0
37.608967542648315,4
37.608967542648315,0
37.608967542648315,0
37.608967542648315,1
37.704118490219116,0
37.704118490219116,0
37.704118490219116,0
37.704118490219116,0
37.704118490219116,9
37.704118490219116,17
37.704118490219116,0
37.704118490219116,0
37.704118490219116,33
37.704118490219116,0
37.79923176765442,28
37.79923176765442,0
37.79923176765442,6
37.79923176765442,1
37.79923176765442,0
37.79923176765442,41
37.79923176765442,5
37.79923176765442,10
37.79923176765442,47
37.89529371261597,26
37.89529371261597,12
37.89529371261597,26
37.89529371261597,0
37.89529371261597,12
37.89529371261597,5
37.89529371261597,0
37.89529371261597,5
37.89529371261597,0
37.990225315093994,22
37.990225315093994,1
37.990225315093994,12
37.990225315093994,1
37.990225315093994,10
37.990225315093994,17
37.990225315093994,33
37.990225315093994,13
37.990225315093994,7
37.990225315093994,17
38.08506894111633,23
38.08506894111633,46
38.08506894111633,37
38.08506894111633,73
38.08506894111633,17
38.08506894111633,7
38.08506894111633,0
38.08506894111633,33
38.08506894111633,62
38.08506894111633,8
38.189600467681885,5
38.189600467681885,6
38.189600467681885,15
38.189600467681885,31
38.189600467681885,47
38.189600467681885,84
38.189600467681885,136
38.19262075424194,1
38.19262075424194,391
38.28609275817871,382
38.28609275817871,393
38.28609275817871,147
38.28609275817871,141
38.28609275817871,970
38.28609275817871,960
38.28609275817871,517
38.28609275817871,769
38.28609275817871,21
38.38154411315918,304
38.38154411315918,5
38.38154411315918,29
38.38154411315918,0
38.38154411315918,10
38.38154411315918,17
38.38154411315918,73
38.38154411315918,197
38.38154411315918,221
38.38154411315918,321
38.47760772705078,418
38.47760772705078,62
38.47760772705078,34
38.47760772705078,243
38.47760772705078,444
38.47760772705078,94
38.47760772705078,505
38.47760772705078,559
38.47760772705078,908
38.57266330718994,321
38.57266330718994,653
38.57266330718994,194
38.57266330718994,206
38.57266330718994,111
38.57266330718994,105
38.57266330718994,164
38.57266330718994,79
38.57266330718994,393
38.66633582115173,9
38.66633582115173,260
38.66633582115173,219
38.66633582115173,182
38.66633582115173,119
38.66633582115173,72
38.66633582115173,40
38.66633582115173,375
38.66633582115173,22
38.66633582115173,243
38.76665711402893,911
38.76665711402893,212
38.76665711402893,84
38.76665711402893,66
38.76665711402893,33
38.76665711402893,286
38.76665711402893,53
38.76665711402893,10
38.76665711402893,587
38.8470094203949,340
38.8470094203949,17
38.8470094203949,0
38.8470094203949,133
38.8470094203949,77
38.8470094203949,32
38.8470094203949,120
38.8470094203949,743
38.8470094203949,334
38.9420280456543,361
38.9420280456543,195
38.9420280456543,23
38.9420280456543,106
38.9420280456543,105
38.9420280456543,145
38.9420280456543,163
38.9420280456543,510
38.9420280456543,133
39.03698134422302,247
39.03698134422302,286
39.03698134422302,45
39.03698134422302,138
39.03698134422302,169
39.03698134422302,62
39.03698134422302,419
39.03698134422302,41
39.03698134422302,155
39.03698134422302,214
39.13276982307434,58
39.13276982307434,47
39.13276982307434,5
39.13276982307434,144
39.13276982307434,96
39.13276982307434,208
39.13276982307434,0
39.13276982307434,461
39.13276982307434,132
39.228137731552124,35
39.228137731552124,201
39.228137731552124,35
39.228137731552124,67
39.228137731552124,131
39.228137731552124,162
39.228137731552124,29
39.228137731552124,58
39.228137731552124,180
39.32330560684204,79
39.32330560684204,256
39.32330560684204,143
39.32330560684204,411
39.32330560684204,41
39.32330560684204,116
39.32330560684204,10
39.32330560684204,342
39.32330560684204,193
39.41899061203003,83
39.41899061203003,304
39.41899061203003,234
39.41899061203003,13
39.41899061203003,58
39.41899061203003,113
39.41899061203003,1
39.41899061203003,104
39.41899061203003,77
39.41899061203003,11
39.514092445373535,180
39.514092445373535,12
39.514092445373535,48
39.514092445373535,96
39.514092445373535,187
39.514092445373535,47
39.514092445373535,5
39.514092445373535,208
39.514092445373535,186
39.609506607055664,83
39.609506607055664,123
39.609506607055664,289
39.609506607055664,238
39.609506607055664,239
39.609506607055664,172
39.609506607055664,39
39.609506607055664,164
39.609506607055664,127
39.70470190048218,10
39.70470190048218,245
39.70470190048218,189
39.70470190048218,78
39.70470190048218,150
39.70470190048218,183
39.70470190048218,8
39.70470190048218,86
39.70470190048218,58
39.70470190048218,144
39.79914999008179,236
39.79914999008179,120
39.79914999008179,91
39.79914999008179,313
39.79914999008179,87
39.79914999008179,0
39.79914999008179,306
39.79914999008179,0
39.79914999008179,19
39.909878730773926,66
39.909878730773926,153
39.909878730773926,61
39.909878730773926,35
39.909878730773926,130
39.909878730773926,197
39.909878730773926,131
39.909878730773926,30
39.909878730773926,4
39.909878730773926,231
40.00531601905823,4
40.00531601905823,22
40.00531601905823,36
40.00531601905823,1
40.00531601905823,1
40.00531601905823,150
40.00531601905823,20
40.00531601905823,15
40.00531601905823,239
40.00531601905823,39
40.1001923084259,47
40.1001923084259,0
40.1001923084259,7
40.1001923084259,38
40.1001923084259,71
40.1001923084259,85
40.1001923084259,523
40.1001923084259,34
40.1001923084259,180
40.195186138153076,268
40.195186138153076,59
40.195186138153076,113
40.195186138153076,21
40.195186138153076,207
40.195186138153076,48
40.195186138153076,46
40.195186138153076,173
40.195186138153076,165
40.195186138153076,166
40.306506395339966,22
40.306506395339966,96
40.306506395339966,18
40.306506395339966,126
40.306506395339966,174
40.306506395339966,221
40.306506395339966,174
40.306506395339966,124
40.306506395339966,254
40.306506395339966,146
40.40159893035889,179
40.40159893035889,93
40.40159893035889,34
40.40159893035889,257
40.40159893035889,67
40.40159893035889,0
40.40159893035889,464
40.40159893035889,72
40.40159893035889,130
40.40159893035889,37
40.49863052368164,122
40.49863052368164,115
40.49863052368164,228
40.49863052368164,177
40.49863052368164,79
40.49863052368164,107
40.49863052368164,35
40.49863052368164,6
40.49863052368164,19
40.60853981971741,55
40.60853981971741,41
40.60853981971741,26
40.60853981971741,241
40.60853981971741,391
40.60853981971741,38
40.60853981971741,238
40.60853981971741,315
40.60853981971741,127
40.60853981971741,45
40.70334768295288,190
40.70334768295288,38
40.70334768295288,214
40.70334768295288,389
40.70334768295288,149
40.70334768295288,81
40.70334768295288,236
40.70334768295288,33
40.70334768295288,77
40.70334768295288,89
40.79880976676941,238
40.79880976676941,48
40.79880976676941,275
40.79880976676941,261
40.79880976676941,82
40.79880976676941,42
40.79880976676941,48
40.79880976676941,94
40.79880976676941,75
40.89413070678711,0
40.89413070678711,124
40.89413070678711,47
40.89413070678711,221
40.89413070678711,7
40.89413070678711,3
40.89413070678711,231
40.89413070678711,17
40.89413070678711,24
40.98950123786926,30
40.98950123786926,94
40.98950123786926,471
40.98950123786926,153
40.98950123786926,10
40.98950123786926,143
40.98950123786926,100
40.98950123786926,64
40.98950123786926,496
40.98950123786926,247
41.08521294593811,536
41.08521294593811,184
41.08521294593811,139
41.08521294593811,10
41.08521294593811,88
41.08521294593811,13
41.08521294593811,131
41.08521294593811,204
41.08521294593811,286
41.18040704727173,80
41.18040704727173,10
41.18040704727173,8
41.18040704727173,20
41.18040704727173,377
41.18040704727173,119
41.18040704727173,63
41.18040704727173,149
41.18040704727173,69
41.27299523353577,285
41.27299523353577,329
41.27482891082764,135
41.27482891082764,169
41.27482891082764,21
41.275169372558594,37
41.275169372558594,3
41.275169372558594,6
41.275169372558594,155
41.35403370857239,150
41.35403370857239,105
41.35403370857239,33
41.35403370857239,39
41.35403370857239,85
41.35403370857239,8
41.35403370857239,34
41.35403370857239,351
41.35403370857239,12
41.449182987213135,204
41.449182987213135,240
41.449182987213135,120
41.449182987213135,47
41.449182987213135,93
41.449182987213135,64
41.449182987213135,42
41.449182987213135,15
41.449182987213135,3
41.54470467567444,141
41.54470467567444,15
41.54470467567444,0
41.54470467567444,20
41.54470467567444,0
41.54470467567444,216
41.54470467567444,63
41.54470467567444,0
41.54470467567444,28
41.6399347782135,107
41.6399347782135,0
41.6399347782135,14
41.6399347782135,26
41.6399347782135,0
41.6399347782135,50
41.6399347782135,18
41.6399347782135,9
41.6399347782135,44
41.6399347782135,13
41.73491382598877,71
41.73491382598877,30
41.73491382598877,6
41.73491382598877,32
41.73491382598877,67
41.73491382598877,250
41.73491382598877,57
41.73491382598877,39
41.73491382598877,6
41.82993459701538,10
41.82993459701538,0
41.82993459701538,10
41.82993459701538,0
41.82993459701538,25
41.82993459701538,15
41.82993459701538,49
41.82993459701538,18
41.82993459701538,16
41.82993459701538,12
41.93565511703491,0
41.93565511703491,8
41.93565511703491,40
41.93565511703491,142
41.93565511703491,25
41.93565511703491,4
41.93565511703491,4
41.93565511703491,21
41.93565511703491,5
42.03122115135193,0
42.03122115135193,12
42.03122115135193,9
42.03122115135193,12
42.03122115135193,23
42.03122115135193,0
42.03122115135193,70
42.03122115135193,0
42.03122115135193,24
42.03122115135193,4
42.13145136833191,11
42.13145136833191,9
42.13145136833191,6
42.13145136833191,29
42.13145136833191,2
42.13145136833191,25
42.13145136833191,6
42.13145136833191,11
42.13145136833191,0
42.2279155254364,0
42.2279155254364,11
42.2279155254364,26
42.2279155254364,8
42.2279155254364,1
42.2279155254364,67
42.2279155254364,23
42.2279155254364,0
42.2279155254364,15
42.2279155254364,44
42.323307275772095,6
42.323307275772095,0
42.323307275772095,0
42.323307275772095,20
42.323307275772095,1
42.323307275772095,17
42.323307275772095,2
42.323307275772095,2
42.323307275772095,9
42.417924642562866,24
42.417924642562866,0
42.417924642562866,2
42.417924642562866,0
42.417924642562866,31
42.417924642562866,0
42.417924642562866,0
42.417924642562866,23
42.417924642562866,10
42.513668060302734,0
42.513668060302734,0
42.513668060302734,4
42.513668060302734,17
42.513668060302734,0
42.513668060302734,0
42.513668060302734,16
42.513668060302734,4
42.513668060302734,2
42.513668060302734,0
42.60775947570801,17
42.60775947570801,0
42.60775947570801,2
42.60775947570801,0
42.60775947570801,18
42.60775947570801,11
42.60775947570801,12
42.60775947570801,2
42.60775947570801,2
42.60775947570801,0
42.70307755470276,0
42.70307755470276,8
42.70307755470276,3
42.70307755470276,0
42.70307755470276,0
42.70307755470276,19
42.70307755470276,1
42.70307755470276,0
42.70307755470276,0
42.80206608772278,1
42.80206608772278,0
42.80206608772278,2
42.80206608772278,0
42.80206608772278,10
42.80206608772278,0
42.80206608772278,0
42.80206608772278,2
42.80206608772278,9
42.80206608772278,3
42.90891170501709,9
42.90891170501709,7
42.90891170501709,2
42.90891170501709,5
42.90891170501709,1
42.90891170501709,2
42.90891170501709,0
42.90891170501709,13
42.90891170501709,0
42.90891170501709,0
43.00393605232239,6
43.00393605232239,8
43.00393605232239,0
43.00393605232239,31
43.00393605232239,4
43.00393605232239,0
43.00393605232239,0
43.00393605232239,0
43.00393605232239,12
43.00393605232239,8
43.098915100097656,0
43.098915100097656,2
43.098915100097656,11
43.098915100097656,6
43.098915100097656,0
43.098915100097656,0
43.098915100097656,4
43.098915100097656,11
43.098915100097656,0
43.19492030143738,2
43.19492030143738,3
43.19492030143738,1
43.19492030143738,0
43.19492030143738,4
43.19492030143738,5
43.19492030143738,0
43.19492030143738,0
43.19492030143738,23
43.29023551940918,13
43.29023551940918,1
43.29023551940918,13
43.29023551940918,0
43.29023551940918,0
43.29023551940918,5
43.29023551940918,0
43.29023551940918,3
43.29023551940918,2
43.38516926765442,6
43.38516926765442,9
43.38516926765442,10
43.38516926765442,0
43.38516926765442,0
43.38516926765442,2
43.38516926765442,0
43.38516926765442,2
43.38516926765442,11
43.475053548812866,14
43.475053548812866,4
43.475053548812866,1
43.475053548812866,8
43.475053548812866,0
43.475053548812866,0
43.475053548812866,11
43.475053548812866,1
43.475053548812866,0
43.575650691986084,0
43.575650691986084,31
43.575650691986084,4
43.575650691986084,1
43.575650691986084,4
43.575650691986084,4
43.575650691986084,0
43.575650691986084,1
43.575650691986084,5
43.575650691986084,0
43.67063498497009,0
43.67063498497009,10
43.67063498497009,0
43.67063498497009,7
43.67063498497009,0
43.67063498497009,0
43.67063498497009,0
43.67063498497009,0
43.67063498497009,3
43.67063498497009,0
43.76717662811279,0
43.76717662811279,25
43.76717662811279,0
43.76717662811279,0
43.76717662811279,4
43.76717662811279,0
43.76717662811279,0
43.76717662811279,10
43.76717662811279,15
43.860689878463745,2
43.860689878463745,9
43.860689878463745,5
43.860689878463745,0
43.860689878463745,5
43.860689878463745,0
43.860689878463745,10
43.860689878463745,0
43.860689878463745,1
43.860689878463745,0
43.95573115348816,1
43.95573115348816,2
43.95573115348816,10
43.95573115348816,0
43.95573115348816,1
43.95573115348816,0
43.95573115348816,12
43.95573115348816,3
43.95573115348816,1
44.051172971725464,0
44.051172971725464,0
44.051172971725464,9
44.051172971725464,0
44.051172971725464,0
44.051172971725464,0
44.051172971725464,6
44.051172971725464,7
44.051172971725464,1
44.051172971725464,4
44.16239285469055,0
44.16239285469055,3
44.16239285469055,0
44.16239285469055,0
44.16278553009033,0
44.16278553009033,0
44.16278553009033,1
44.16278553009033,25
44.16278553009033,3
44.16278553009033,0
44.25842261314392,0
44.25842261314392,0
44.25842261314392,0
44.25842261314392,0
44.25842261314392,0
44.25842261314392,0
44.25842261314392,0
44.25842261314392,4
44.25842261314392,0
44.25842261314392,2
44.35384726524353,4
44.35384726524353,0
44.35384726524353,0
44.35384726524353,5
44.35384726524353,7
44.35384726524353,8
44.35384726524353,5
44.35384726524353,2
44.35384726524353,0
44.448811769485474,12
44.448811769485474,0
44.448811769485474,0
44.448811769485474,0
44.448811769485474,6
44.448811769485474,4
44.448811769485474,0
44.448811769485474,0
44.448811769485474,0
44.448811769485474,1
44.543155670166016,1
44.543155670166016,1
44.543155670166016,12
44.543155670166016,0
44.543155670166016,0
44.543155670166016,0
44.543155670166016,0
44.543155670166016,0
44.543155670166016,0
44.654486417770386,0
44.654486417770386,0
44.654486417770386,0
44.654486417770386,0
44.654486417770386,0
44.654486417770386,0
44.654486417770386,0
44.654486417770386,0
44.654486417770386,0
44.654486417770386,10
44.749507427215576,0
44.749507427215576,0
44.749507427215576,0
44.749507427215576,0
44.749507427215576,0
44.749507427215576,0
44.749507427215576,0
44.749507427215576,0
44.749507427215576,0
44.749507427215576,0
44.84511733055115,0
44.84511733055115,0
44.84511733055115,0
44.84511733055115,0
44.84511733055115,0
44.84511733055115,0
44.84511733055115,0
44.84511733055115,0
44.84511733055115,0
44.94043827056885,0
44.94043827056885,0
44.94043827056885,0
44.94043827056885,0
44.94043827056885,0
44.94043827056885,0
44.94043827056885,0
44.94043827056885,0
44.94043827056885,0
44.94043827056885,0
45.03558278083801,1
45.03558278083801,0
45.03558278083801,0
45.03558278083801,0
45.03558278083801,0
45.03558278083801,0
45.03558278083801,0
45.03558278083801,1
45.03558278083801,0
45.13073420524597,0
45.13073420524597,0
45.13073420524597,0
45.13073420524597,0
45.13073420524597,0
45.13073420524597,0
45.13073420524597,0
45.13073420524597,0
45.13073420524597,0
45.13073420524597,0
45.22624588012695,0
45.22624588012695,0
45.22624588012695,0
45.22624588012695,0
45.22624588012695,8
45.22624588012695,0
45.22624588012695,0
45.22624588012695,0
45.22624588012695,3
45.32145118713379,0
45.32145118713379,0
45.32145118713379,0
45.32145118713379,0
45.32145118713379,0
45.32145118713379,0
45.32145118713379,0
45.32145118713379,0
45.32145118713379,0
45.41585659980774,0
45.41585659980774,0
45.41585659980774,0
45.41585659980774,0
45.41585659980774,0
45.41585659980774,3
45.41585659980774,1
45.41585659980774,1
45.41585659980774,1
45.51068902015686,0
45.51068902015686,0
45.51068902015686,0
45.51068902015686,0
45.51068902015686,0
45.51068902015686,1
45.51068902015686,0
45.51068902015686,0
45.51068902015686,0
45.60582661628723,3
45.60582661628723,0
45.60582661628723,0
45.60582661628723,0
45.60582661628723,0
45.60582661628723,0
45.60582661628723,0
45.60582661628723,0
45.60582661628723,9
45.60582661628723,0
45.70129132270813,0
45.70129132270813,0
45.70129132270813,0
45.70129132270813,0
45.70129132270813,0
45.70129132270813,0
45.70129132270813,0
45.70129132270813,4
45.70129132270813,0
45.79709553718567,3
45.79709553718567,3
45.79709553718567,0
45.79709553718567,0
45.79709553718567,1
45.79709553718567,0
45.79709553718567,7
45.79709553718567,0
45.79709553718567,0
45.887166023254395,8
45.887166023254395,2
45.887166023254395,3
45.887166023254395,0
45.887166023254395,0
45.887166023254395,7
45.887166023254395,1
45.887166023254395,0
45.887166023254395,0
45.887166023254395,1
45.98348069190979,0
45.98348069190979,0
45.98348069190979,0
45.98348069190979,0
45.98348069190979,0
45.98348069190979,0
45.98348069190979,0
45.98348069190979,0
45.98348069190979,0
46.07733130455017,1
46.07733130455017,1
46.07733130455017,0
46.07733130455017,0
46.07733130455017,4
46.07733130455017,0
46.07733130455017,0
46.07733130455017,0
46.07733130455017,0
46.17321419715881,0
46.17321419715881,0
46.17321419715881,0
46.17321419715881,10
46.17321419715881,0
46.17321419715881,0
46.17321419715881,0
46.17321419715881,3
46.17321419715881,0
46.17321419715881,5
46.25752329826355,0
46.25752329826355,0
46.25752329826355,0
46.25752329826355,0
46.25752329826355,0
46.25752329826355,1
46.25752329826355,0
46.25752329826355,0
46.25752329826355,2
46.352688789367676,0
46.352688789367676,0
46.352688789367676,11
46.352688789367676,1
46.352688789367676,0
46.352688789367676,0
46.352688789367676,0
46.352688789367676,1
46.352688789367676,0
46.44765257835388,0
46.44765257835388,1
46.44765257835388,0
46.44765257835388,7
46.44765257835388,0
46.44765257835388,0
46.44765257835388,2
46.44765257835388,0
46.44765257835388,0
46.542515993118286,0
46.542515993118286,0
46.542515993118286,0
46.542515993118286,2
46.542515993118286,3
46.542515993118286,0
46.542515993118286,2
46.542515993118286,1
46.542515993118286,1
46.63791513442993,0
46.63791513442993,0
46.63791513442993,0
46.63791513442993,0
46.63791513442993,0
46.63791513442993,0
46.63791513442993,0
46.63791513442993,0
46.63791513442993,0
46.63791513442993,0
46.73269271850586,1
46.73269271850586,0
46.73269271850586,0
46.73269271850586,0
46.73269271850586,1
46.73269271850586,0
46.73269271850586,1
46.73269271850586,0
46.73269271850586,0
46.82801151275635,0
46.82801151275635,2
46.82801151275635,0
46.82801151275635,0
46.82801151275635,0
46.82801151275635,0
46.82801151275635,0
46.82801151275635,0
46.82801151275635,3
46.923755407333374,0
46.923755407333374,0
46.923755407333374,0
46.923755407333374,0
46.923755407333374,1
46.923755407333374,0
46.923755407333374,1
46.923755407333374,0
46.923755407333374,0
46.923755407333374,0
47.0197434425354,0
47.0197434425354,0
47.0197434425354,7
47.0197434425354,0
47.0197434425354,0
47.0197434425354,0
47.0197434425354,0
47.0197434425354,0
47.0197434425354,0
47.11470580101013,0
47.11470580101013,0
47.11470580101013,0
47.11470580101013,5
47.11470580101013,0
47.11470580101013,0
47.11470580101013,0
47.11470580101013,0
47.11470580101013,2
47.19411325454712,0
47.19411325454712,0
47.19411325454712,0
47.19411325454712,1
47.19411325454712,0
47.19411325454712,0
47.19411325454712,0
47.19411325454712,0
47.19411325454712,0
47.28909087181091,0
47.28909087181091,0
47.28909087181091,0
47.28909087181091,0
47.28909087181091,0
47.28909087181091,0
47.28909087181091,0
47.28909087181091,0
47.28909087181091,1
47.3911509513855,0
47.3911509513855,1
47.3911509513855,4
47.3911509513855,0
47.3911509513855,2
47.3911509513855,0
47.3911509513855,0
47.3911509513855,0
47.3911509513855,9
47.3911509513855,0
47.486828088760376,2
47.486828088760376,1
47.486828088760376,0
47.486828088760376,6
47.486828088760376,5
47.486828088760376,0
47.486828088760376,19
47.486828088760376,0
47.486828088760376,3
47.58708477020264,6
47.58708477020264,0
47.58708477020264,23
47.58708477020264,0
47.58708477020264,23
47.58708477020264,0
47.58708477020264,3
47.58708477020264,0
47.58708477020264,0
47.67989134788513,29
47.67989134788513,0
47.67989134788513,0
47.67989134788513,0
47.67989134788513,7
47.67989134788513,30
47.67989134788513,0
47.67989134788513,16
47.67989134788513,0
47.67989134788513,0
47.77568578720093,0
47.77568578720093,0
47.77568578720093,28
47.77568578720093,5
47.77568578720093,15
47.77568578720093,8
47.77568578720093,353
47.77568578720093,2
47.77568578720093,32
47.876158237457275,10
47.876158237457275,2
47.87683033943176,43
47.87683033943176,21
47.87683033943176,21
47.87683033943176,207
47.87683033943176,265
47.87683033943176,57
47.87683033943176,77
47.87683033943176,0
47.95547842979431,236
47.95547842979431,293
47.95547842979431,60
47.95547842979431,70
47.95547842979431,55
47.95547842979431,2
47.971232175827026,37
47.971232175827026,133
47.971232175827026,0
48.06731033325195,183
48.06731033325195,314
48.06731033325195,55
48.06731033325195,83
48.06731033325195,94
48.06731033325195,90
48.06731033325195,147
48.06731033325195,67
48.06731033325195,45
48.16163206100464,160
48.16163206100464,233
48.16163206100464,154
48.16163206100464,195
48.16163206100464,18
48.16163206100464,64
48.16163206100464,164
48.16163206100464,16
48.16163206100464,10
48.25641393661499,122
48.25641393661499,43
48.25641393661499,51
48.25641393661499,104
48.25641393661499,175
48.25641393661499,94
48.25641393661499,462
48.25641393661499,137
48.25641393661499,67
48.25641393661499,78
48.33549666404724,74
48.33549666404724,86
48.33549666404724,88
48.33549666404724,219
48.33549666404724,35
48.33549666404724,35
48.33549666404724,146
48.33549666404724,34
48.33549666404724,0
48.42999577522278,131
48.42999577522278,226
48.42999577522278,1
48.42999577522278,2
48.42999577522278,476
48.42999577522278,100
48.42999577522278,8
48.42999577522278,3
48.42999577522278,90
48.53585410118103,30
48.53585410118103,16
48.53585410118103,35
48.53585410118103,35
48.53585410118103,380
48.53585410118103,292
48.53585410118103,125
48.53585410118103,63
48.53585410118103,118
48.620850801467896,43
48.620850801467896,7
48.620850801467896,283
48.620850801467896,213
48.63119602203369,104
48.63119602203369,189
48.63119602203369,89
48.63119602203369,0
48.63119602203369,19
48.716514110565186,31
48.716514110565186,147
48.716514110565186,293
48.716514110565186,20
48.716514110565186,31
48.716514110565186,116
48.716514110565186,0
48.716514110565186,64
48.716514110565186,107
48.716514110565186,25
48.810505628585815,189
48.810505628585815,47
48.810505628585815,186
48.810505628585815,51
48.810505628585815,72
48.810505628585815,63
48.810505628585815,103
48.810505628585815,248
48.810505628585815,21
48.92133712768555,112
48.92133712768555,67
48.92133712768555,83
48.92133712768555,58
48.92133712768555,192
48.92133712768555,143
48.92133712768555,24
48.92133712768555,306
48.92133712768555,40
48.92133712768555,80
49.01683735847473,134
49.01683735847473,11
49.01683735847473,76
49.01683735847473,76
49.01683735847473,71
49.01683735847473,71
49.01683735847473,72
49.01683735847473,126
49.01683735847473,64
49.01683735847473,8
49.11087441444397,114
49.11087441444397,52
49.11087441444397,148
49.11087441444397,0
49.11087441444397,157
49.11087441444397,91
49.11087441444397,6
49.11087441444397,155
49.11087441444397,1
49.11087441444397,10
49.22215938568115,174
49.22215938568115,4
49.22215938568115,143
49.22215938568115,152
49.22215938568115,230
49.22215938568115,33
49.22215938568115,224
49.22215938568115,326
49.22215938568115,106
49.31781792640686,98
49.31781792640686,63
49.31781792640686,50
49.31781792640686,109
49.31781792640686,19
49.31781792640686,117
49.31781792640686,90
49.31781792640686,21
49.31781792640686,412
49.31781792640686,74
49.41227722167969,7
49.41227722167969,59
49.41227722167969,59
49.41227722167969,27
49.41227722167969,195
49.41227722167969,68
49.41227722167969,3
49.41227722167969,48
49.41227722167969,59
49.506855487823486,286
49.506855487823486,62
49.506855487823486,36
49.506855487823486,290
49.506855487823486,100
49.506855487823486,43
49.506855487823486,31
49.506855487823486,18
49.506855487823486,80
49.602304220199585,328
49.602304220199585,63
49.602304220199585,65
49.602304220199585,37
49.602304220199585,318
49.602304220199585,149
49.602304220199585,79
49.602304220199585,85
49.602304220199585,233
49.602304220199585,128
49.72435760498047,73
49.72435760498047,135
49.72435760498047,52
49.72435760498047,13
49.72435760498047,142
49.72435760498047,256
49.72435760498047,70
49.72435760498047,59
49.72435760498047,156
49.72435760498047,1
49.72435760498047,271
49.82483410835266,170
49.82483410835266,23
49.82483410835266,123
49.82483410835266,276
49.82483410835266,22
49.82483410835266,128
49.82483410835266,62
49.82483410835266,81
49.82483410835266,18
49.82483410835266,94
49.92972683906555,130
49.93121409416199,136
49.93121409416199,167
49.93121409416199,123
49.93121409416199,96
49.93121409416199,54
49.93121409416199,6
49.93121409416199,114
49.93121409416199,125
49.93121409416199,212
49.93121409416199,61
50.029892444610596,10
50.029892444610596,77
50.029892444610596,0
50.029892444610596,31
50.029892444610596,70
50.029892444610596,95
50.029892444610596,21
50.029892444610596,42
50.029892444610596,181
50.029892444610596,24
50.12588620185852,318
50.12588620185852,147
50.12588620185852,178
50.12588620185852,83
50.12588620185852,20
50.13598847389221,171
50.13598847389221,8
50.13598847389221,111
50.13598847389221,185
50.23616695404053,111
50.23616695404053,142
50.23616695404053,47
50.23616695404053,6
50.23616695404053,105
50.23616695404053,112
50.23616695404053,142
50.23616695404053,95
50.23616695404053,162
50.23616695404053,16
50.33108878135681,8
50.33108878135681,23
50.33108878135681,50
50.33108878135681,21
50.33108878135681,81
50.33108878135681,251
50.33108878135681,174
50.33108878135681,119
50.33108878135681,5
50.33108878135681,172
50.44262361526489,338
50.44262361526489,90
50.44262361526489,197
50.44262361526489,19
50.44262361526489,90
50.44262361526489,154
50.44262361526489,57
50.44262361526489,5
50.44262361526489,39
50.44262361526489,167
50.44262361526489,59
50.53658747673035,24
50.53658747673035,62
50.53658747673035,47
50.53658747673035,24
50.53658747673035,27
50.53658747673035,40
50.53658747673035,6
50.53658747673035,10
50.53658747673035,2
50.53658747673035,1
50.64732575416565,2
50.64732575416565,9
50.64732575416565,2
50.64732575416565,64
50.64732575416565,8
50.64732575416565,12
50.64732575416565,7
50.64732575416565,0
50.64732575416565,13
50.64732575416565,67
50.74270987510681,13
50.74270987510681,9
50.74270987510681,45
50.74270987510681,1
50.74270987510681,37
50.74270987510681,39
50.74270987510681,1
50.74270987510681,9
50.74270987510681,0
50.74270987510681,38
50.85362505912781,4
50.85362505912781,45
50.85362505912781,43
50.85362505912781,14
50.85362505912781,42
50.85362505912781,0
50.85362505912781,17
50.85362505912781,19
50.85362505912781,22
50.85362505912781,0
50.95627522468567,23
50.95627522468567,11
50.95627522468567,0
50.95627522468567,0
50.95627522468567,10
50.95627522468567,14
50.95627522468567,0
50.95627522468567,0
50.95627522468567,8
50.95627522468567,45
51.04412508010864,0
51.04412508010864,16
51.04412508010864,2
51.04412508010864,17
51.04412508010864,2
51.04412508010864,0
51.04412508010864,37
51.04412508010864,25
51.04412508010864,3
51.04412508010864,35
51.15563178062439,14
51.15563178062439,6
51.15563178062439,12
51.15563178062439,22
51.15563178062439,1
51.15563178062439,0
51.15563178062439,3
51.15563178062439,6
51.15563178062439,36
51.15563178062439,15
51.2504141330719,13
51.2504141330719,52
51.2504141330719,26
51.2504141330719,9
51.2504141330719,6
51.2504141330719,30
51.2504141330719,1
51.2504141330719,2
51.2504141330719,15
51.2504141330719,14
51.345638275146484,13
51.345638275146484,5
51.345638275146484,0
51.345638275146484,0
51.345638275146484,8
51.345638275146484,0
51.345638275146484,0
51.345638275146484,1
51.345638275146484,4
51.44041848182678,1
51.44041848182678,18
51.44041848182678,81
51.44041848182678,2
51.44041848182678,11
51.44041848182678,5
51.44041848182678,21
51.44041848182678,1
51.44041848182678,2
51.44041848182678,26
51.5359365940094,0
51.5359365940094,9
51.5359365940094,2
51.5359365940094,1
51.5359365940094,1
51.5359365940094,3
51.5359365940094,9
51.5359365940094,0
51.5359365940094,8
51.63140916824341,0
51.63140916824341,0
51.63140916824341,11
51.63140916824341,0
51.63140916824341,1
51.63140916824341,4
51.63140916824341,20
51.63140916824341,7
51.63140916824341,0
51.73656249046326,20
51.73656249046326,1
51.73656249046326,3
51.73656249046326,0
51.73656249046326,0
51.73656249046326,11
51.73656249046326,6
51.73656249046326,17
51.73656249046326,3
51.73656249046326,13
51.83179712295532,2
51.83179712295532,28
51.83179712295532,10
51.83179712295532,0
51.83179712295532,0
51.83179712295532,0
51.83179712295532,1
51.83179712295532,2
51.83179712295532,0
51.92623281478882,10
51.92623281478882,0
51.92623281478882,0
51.92623281478882,5
51.92623281478882,23
51.92623281478882,0
51.92623281478882,7
51.92623281478882,0
51.92623281478882,0
51.92623281478882,0
52.01089406013489,0
52.01089406013489,0
52.01089406013489,11
52.01089406013489,0
52.01089406013489,0
52.01089406013489,2
52.01089406013489,3
52.01089406013489,0
52.01089406013489,0
52.10592746734619,6
52.10592746734619,3
52.10592746734619,0
52.10592746734619,2
52.10592746734619,0
52.10592746734619,1
52.10592746734619,0
52.10592746734619,0
52.10592746734619,7
52.20185589790344,3
52.20185589790344,3
52.20185589790344,1
52.20185589790344,0
52.20185589790344,0
52.20185589790344,8
52.20185589790344,8
52.20185589790344,0
52.20185589790344,3
52.20185589790344,0
52.29564881324768,0
52.29564881324768,0
52.29564881324768,15
52.29564881324768,3
52.29564881324768,0
52.29564881324768,0
52.29564881324768,1
52.29564881324768,7
52.29564881324768,2
52.39604377746582,18
52.39604377746582,0
52.39604377746582,7
52.39604377746582,8
52.39604377746582,0
52.39604377746582,1
52.39604377746582,11
52.39604377746582,3
52.39604377746582,0
52.487491607666016,1
52.487491607666016,0
52.487491607666016,11
52.487491607666016,18
52.487491607666016,12
52.487491607666016,3
52.487491607666016,17
52.49210286140442,3
52.49210286140442,0
52.581543922424316,0
52.581543922424316,6
52.581543922424316,0
52.581543922424316,11
52.581543922424316,4
52.581543922424316,32
52.581543922424316,5
52.581543922424316,0
52.581543922424316,0
52.66093039512634,0
52.66093039512634,0
52.66093039512634,0
52.66093039512634,0
52.66093039512634,0
52.66093039512634,0
52.66093039512634,0
52.66093039512634,0
52.66093039512634,14
52.77210187911987,4
52.77210187911987,0
52.77210187911987,0
52.77210187911987,22
52.77210187911987,0
52.77210187911987,0
52.77210187911987,0
52.77210187911987,0
52.77210187911987,0
52.867942094802856,0
52.867942094802856,0
52.867942094802856,0
52.867942094802856,1
52.867942094802856,2
52.867942094802856,0
52.867942094802856,5
52.867942094802856,1
52.867942094802856,3
52.867942094802856,0
52.96288585662842,18
52.96288585662842,1
52.96288585662842,1
52.96288585662842,2
52.96288585662842,0
52.96288585662842,0
52.96288585662842,0
52.96288585662842,3
52.96288585662842,2
53.057679414749146,0
53.057679414749146,2
53.057679414749146,0
53.057679414749146,3
53.057679414749146,0
53.057679414749146,0
53.057679414749146,0
53.057679414749146,0
53.057679414749146,0
53.057679414749146,0
53.15271973609924,1
53.15271973609924,0
53.15271973609924,17
53.15271973609924,0
53.15271973609924,1
53.15271973609924,0
53.15271973609924,4
53.15271973609924,1
53.15271973609924,0
53.24821758270264,0
53.24821758270264,0
53.24821758270264,3
53.24821758270264,0
53.24821758270264,0
53.24821758270264,1
53.24821758270264,3
53.24821758270264,2
53.24821758270264,0
53.24821758270264,0
53.34391760826111,0
53.34391760826111,2
53.34391760826111,0
53.34391760826111,0
53.34391760826111,3
53.34391760826111,0
53.34391760826111,0
53.34391760826111,0
53.34391760826111,0
53.43882703781128,0
53.43882703781128,0
53.43882703781128,0
53.43882703781128,1
53.43882703781128,0
53.43882703781128,7
53.43882703781128,0
53.43882703781128,0
53.43882703781128,2
53.43882703781128,1
53.534095764160156,0
53.534095764160156,0
53.534095764160156,0
53.534095764160156,0
53.534095764160156,1
53.534095764160156,0
53.534095764160156,0
53.534095764160156,1
53.534095764160156,0
53.62979459762573,4
53.62979459762573,4
53.62979459762573,0
53.62979459762573,0
53.62979459762573,0
53.62979459762573,0
53.62979459762573,0
53.62979459762573,0
53.62979459762573,2
53.62979459762573,0
53.726240158081055,0
53.726240158081055,0
53.726240158081055,17
53.726240158081055,0
53.726240158081055,0
53.726240158081055,2
53.726240158081055,5
53.736332416534424,9
53.736332416534424,0
53.8207368850708,0
53.8207368850708,0
53.8207368850708,0
53.8207368850708,11
53.8207368850708,1
53.8207368850708,3
53.8207368850708,0
53.8207368850708,0
53.8207368850708,0
53.924190521240234,4
53.924190521240234,0
53.924190521240234,1
53.92529535293579,0
53.92529535293579,7
53.92529535293579,0
53.92529535293579,0
53.92529535293579,0
53.92529535293579,0
53.92529535293579,0
54.01037812232971,1
54.01037812232971,4
54.01037812232971,0
54.01037812232971,2
54.01037812232971,0
54.01037812232971,0
54.01037812232971,0
54.01037812232971,3
54.01037812232971,0
54.10553026199341,0
54.10553026199341,0
54.10553026199341,1
54.10553026199341,1
54.10553026199341,0
54.10553026199341,0
54.10553026199341,0
54.10553026199341,1
54.10553026199341,0
54.20066499710083,0
54.20066499710083,0
54.20066499710083,0
54.20066499710083,0
54.20066499710083,4
54.20066499710083,0
54.20066499710083,0
54.20066499710083,0
54.20066499710083,0
54.29576015472412,5
54.29576015472412,5
54.29576015472412,0
54.29576015472412,0
54.29576015472412,0
54.29576015472412,2
54.29576015472412,0
54.29576015472412,0
54.29576015472412,0
54.29576015472412,3
54.39054870605469,0
54.39054870605469,1
54.39054870605469,0
54.39054870605469,1
54.39054870605469,1
54.39054870605469,0
54.39054870605469,0
54.39054870605469,0
54.39054870605469,0
54.48549008369446,6
54.48549008369446,0
54.48549008369446,1
54.48549008369446,0
54.48549008369446,0
54.48549008369446,0
54.48549008369446,0
54.48549008369446,1
54.48549008369446,0
54.58030676841736,14
54.58030676841736,0
54.58030676841736,3
54.58030676841736,0
54.58030676841736,0
54.58030676841736,0
54.58030676841736,1
54.58030676841736,0
54.58030676841736,1
54.58030676841736,0
54.67613983154297,0
54.67613983154297,0
54.67613983154297,0
54.67613983154297,0
54.67613983154297,1
54.67613983154297,0
54.67613983154297,0
54.67613983154297,0
54.67613983154297,4
54.770899057388306,1
54.770899057388306,0
54.770899057388306,0
54.770899057388306,0
54.770899057388306,0
54.770899057388306,0
54.770899057388306,1
54.770899057388306,1
54.770899057388306,0
54.86545467376709,0
54.86545467376709,0
54.86545467376709,1
54.86545467376709,0
54.86545467376709,0
54.86545467376709,0
54.86545467376709,0
54.86545467376709,5
54.86545467376709,8
54.86545467376709,0
54.960365295410156,0
54.960365295410156,0
54.960365295410156,0
54.960365295410156,0
54.960365295410156,0
54.960365295410156,0
54.960365295410156,2
54.960365295410156,0
54.960365295410156,0
55.05578327178955,0
55.05578327178955,0
55.05578327178955,0
55.05578327178955,0
55.05578327178955,0
55.05578327178955,0
55.05578327178955,0
55.05578327178955,4
55.05578327178955,0
55.135316371917725,2
55.135316371917725,0
55.135316371917725,1
55.135316371917725,12
55.135316371917725,0
55.135316371917725,0
55.135316371917725,0
55.135316371917725,0
55.135316371917725,0
55.23064613342285,0
55.23064613342285,0
55.23064613342285,0
55.23064613342285,0
55.23064613342285,0
55.23064613342285,0
55.23064613342285,0
55.23064613342285,0
55.23064613342285,0
55.23064613342285,1
55.33608841896057,0
55.33608841896057,0
55.33608841896057,0
55.33608841896057,0
55.33608841896057,5
55.33608841896057,0
55.33608841896057,2
55.33608841896057,0
55.33608841896057,12
55.43635439872742,3
55.43635439872742,0
55.43635439872742,0
55.43635439872742,0
55.43635439872742,0
55.43635439872742,0
55.43635439872742,0
55.43635439872742,0
55.43635439872742,0
55.54235005378723,0
55.54235005378723,0
55.54235005378723,0
55.54235005378723,0
55.54235005378723,2
55.54235005378723,1
55.54235005378723,9
55.54235005378723,3
55.54235005378723,0
55.54235005378723,0
55.54235005378723,1
55.644951820373535,0
55.644951820373535,5
55.644951820373535,0
55.644951820373535,4
55.644951820373535,8
55.644951820373535,0
55.644951820373535,1
55.644951820373535,1
55.644951820373535,0
55.644951820373535,0
55.79089975357056,1
55.79089975357056,1
55.79089975357056,0
55.79089975357056,0
55.79089975357056,0
55.79089975357056,0
55.79089975357056,0
55.79089975357056,1
55.79089975357056,0
55.79089975357056,0
55.79089975357056,0
55.79089975357056,0
55.79089975357056,4
55.79089975357056,0
55.79089975357056,0
55.94251799583435,9
55.94251799583435,0
55.94251799583435,0
55.94251799583435,0
55.94251799583435,0
55.94251799583435,0
55.94251799583435,0
55.94251799583435,0
55.94251799583435,0
55.94251799583435,0
55.94251799583435,0
55.94251799583435,0
55.94251799583435,0
55.94251799583435,0
55.94251799583435,0
56.04680943489075,0
56.04680943489075,0
56.04680943489075,0
56.04680943489075,0
56.04680943489075,1
56.04680943489075,0
56.04680943489075,0
56.04680943489075,0
56.04680943489075,0
56.04680943489075,0
56.132532835006714,1
56.132532835006714,0
56.132532835006714,1
56.132532835006714,0
56.132532835006714,0
56.132532835006714,1
56.132532835006714,0
56.132532835006714,0
56.132532835006714,0
56.24728059768677,0
56.24728059768677,0
56.24728059768677,0
56.24728059768677,3
56.24728059768677,0
56.24728059768677,0
56.24728059768677,0
56.24728059768677,0
56.24728059768677,0
56.24728059768677,7
56.33956718444824,0
56.33956718444824,0
56.33956718444824,0
56.33956718444824,0
56.33956718444824,0
56.33956718444824,0
56.33956718444824,0
56.33956718444824,5
56.33956718444824,0
56.33956718444824,0
56.43536424636841,0
56.43536424636841,1
56.43536424636841,1
56.43536424636841,0
56.43536424636841,1
56.43536424636841,1
56.43536424636841,0
56.43536424636841,0
56.43536424636841,0
56.43536424636841,0
56.53036856651306,1
56.53036856651306,0
56.53036856651306,0
56.53036856651306,0
56.53036856651306,9
56.53036856651306,0
56.53036856651306,3
56.53036856651306,2
56.53036856651306,0
56.63652849197388,0
56.63652849197388,0
56.63652849197388,4
56.63652849197388,16
56.63652849197388,0
56.63652849197388,0
56.63652849197388,0
56.63652849197388,3
56.63652849197388,0
56.73179841041565,0
56.73179841041565,0
56.73179841041565,0
56.73179841041565,0
56.73179841041565,2
56.73179841041565,0
56.73179841041565,0
56.73179841041565,1
56.73179841041565,7
56.73179841041565,1
56.83264350891113,4
56.83264350891113,0
56.83264350891113,3
56.83264350891113,0
56.83264350891113,0
56.83264350891113,0
56.83264350891113,0
56.83264350891113,0
56.83264350891113,0
56.83264350891113,2
56.92842507362366,5
56.92842507362366,1
56.92842507362366,0
56.92842507362366,0
56.92842507362366,0
56.92842507362366,9
56.92842507362366,7
56.92842507362366,0
56.92842507362366,0
57.024370193481445,1
57.024370193481445,0
57.024370193481445,1
57.024370193481445,0
57.024370193481445,0
57.024370193481445,4
57.024370193481445,2
57.024370193481445,0
57.024370193481445,1
57.024370193481445,3
57.11888670921326,0
57.11888670921326,1
57.11888670921326,2
57.11888670921326,0
57.11888670921326,0
57.11888670921326,1
57.11888670921326,0
57.11888670921326,0
57.11888670921326,1
57.11888670921326,0
57.22950625419617,0
57.22950625419617,0
57.22950625419617,0
57.22950625419617,0
57.22950625419617,0
57.22950625419617,0
57.22950625419617,0
57.22950625419617,0
57.22950625419617,2
57.22950625419617,0
57.325225830078125,3
57.325225830078125,0
57.325225830078125,3
57.325225830078125,0
57.325225830078125,3
57.325225830078125,0
57.325225830078125,0
57.325225830078125,0
57.325225830078125,0
57.325225830078125,0
57.42132496833801,4
57.42132496833801,0
57.42132496833801,0
57.42132496833801,0
57.42132496833801,0
57.42132496833801,0
57.42132496833801,0
57.42132496833801,0
57.42132496833801,0
57.52637028694153,0
57.52637028694153,0
57.52637028694153,0
57.52637028694153,0
57.52637028694153,0
57.52637028694153,0
57.52637028694153,2
57.52637028694153,0
57.52637028694153,0
57.52637028694153,0
57.611366510391235,0
57.611366510391235,0
57.611366510391235,0
57.611366510391235,0
57.611366510391235,0
57.611366510391235,0
57.611366510391235,0
57.611366510391235,0
57.611366510391235,0
57.611366510391235,0
57.72276282310486,0
57.72276282310486,5
57.72276282310486,0
57.72276282310486,0
57.72276282310486,5
57.72276282310486,0
57.72276282310486,0
57.72276282310486,1
57.72276282310486,2
57.80932378768921,0
57.80932378768921,1
57.80932378768921,14
57.80932378768921,0
57.80932378768921,8
57.80932378768921,5
57.80932378768921,17
57.80932378768921,0
57.80932378768921,2
57.9095675945282,1
57.9095675945282,11
57.9095675945282,3
57.9095675945282,0
57.9095675945282,2
57.9095675945282,0
57.9095675945282,0
57.9095675945282,0
57.9095675945282,0
57.9095675945282,3
57.99302554130554,12
57.99302554130554,9
57.99302554130554,10
57.99302554130554,2
57.99302554130554,0
57.99302554130554,0
57.99302554130554,0
57.99302554130554,8
57.99302554130554,7
58.10085105895996,5
58.10085105895996,3
58.10085105895996,20
58.10085105895996,1
58.10085105895996,19
58.10085105895996,0
