Time,EMG
0.7605745792388916,0
0.7605745792388916,0
0.7605745792388916,0
0.7605745792388916,0
0.7605745792388916,25
0.7605745792388916,0
0.7605745792388916,0
0.7605745792388916,0
0.7605745792388916,0
0.7605745792388916,0
0.7605745792388916,2
0.7605745792388916,1
0.7605745792388916,0
0.7605745792388916,0
0.7605745792388916,0
0.7605745792388916,3
0.7605745792388916,0
0.7605745792388916,0
0.7605745792388916,0
0.7605745792388916,0
0.7605745792388916,0
0.7605745792388916,0
0.7605745792388916,0
0.7605745792388916,0
0.7605745792388916,0
0.7605745792388916,2
0.7605745792388916,0
0.7605745792388916,2
0.7605745792388916,10
0.7605745792388916,9
0.7605745792388916,17
0.7605745792388916,1
0.7605745792388916,3
0.7605745792388916,0
0.7605745792388916,0
0.7605745792388916,1
0.7605745792388916,7
0.7605745792388916,0
0.7691619396209717,11
0.7691619396209717,0
0.7691619396209717,0
0.7691619396209717,1
0.7691619396209717,16
0.7691619396209717,0
0.7691619396209717,3
0.7691619396209717,0
0.7691619396209717,10
0.7691619396209717,0
0.7691619396209717,0
0.7691619396209717,9
0.7691619396209717,5
0.7691619396209717,0
0.7691619396209717,0
0.7691619396209717,2
0.7691619396209717,0
0.7691619396209717,0
0.7706866264343262,0
0.7706866264343262,0
0.7706866264343262,0
0.7706866264343262,1
0.7706866264343262,0
0.7706866264343262,0
0.7706866264343262,9
0.7706866264343262,6
0.7706866264343262,0
0.7706866264343262,0
0.7706866264343262,0
0.7706866264343262,0
0.7706866264343262,0
0.7706866264343262,9
0.7706866264343262,3
0.7706866264343262,0
0.7706866264343262,4
0.7706866264343262,0
0.7706866264343262,0
0.7706866264343262,0
0.7706866264343262,3
0.7706866264343262,0
0.7706866264343262,0
0.7706866264343262,4
0.7706866264343262,0
0.7706866264343262,1
0.7706866264343262,6
0.7706866264343262,0
0.7706866264343262,0
0.7706866264343262,0
0.7706866264343262,0
0.7706866264343262,3
0.7706866264343262,0
0.7706866264343262,2
0.7706866264343262,0
0.7706866264343262,9
0.7706866264343262,0
0.7706866264343262,10
0.7706866264343262,0
0.7706866264343262,10
0.7706866264343262,0
0.7706866264343262,0
0.7706866264343262,0
0.7706866264343262,0
0.7706866264343262,7
0.7706866264343262,0
0.7706866264343262,1
0.7706866264343262,5
0.7706866264343262,0
0.7706866264343262,0
0.7706866264343262,3
0.7706866264343262,8
0.7755980491638184,0
0.7755980491638184,3
0.7755980491638184,0
0.7755980491638184,0
0.7755980491638184,0
0.7755980491638184,0
0.7755980491638184,2
0.7755980491638184,0
0.7755980491638184,0
0.7755980491638184,0
0.7755980491638184,2
0.7755980491638184,0
0.7755980491638184,0
0.7755980491638184,0
0.7755980491638184,0
0.7755980491638184,1
0.7755980491638184,0
0.956303596496582,0
0.956303596496582,0
0.956303596496582,4
0.956303596496582,0
0.956303596496582,0
0.956303596496582,0
0.956303596496582,0
0.956303596496582,0
0.956303596496582,0
0.956303596496582,3
0.956303596496582,0
0.956303596496582,1
0.9590456485748291,0
0.9590456485748291,0
0.9590456485748291,3
0.9590456485748291,9
0.9590456485748291,0
0.9590456485748291,0
1.149672508239746,0
1.1503260135650635,0
1.1503260135650635,2
1.1503260135650635,0
1.1503260135650635,0
1.1503260135650635,0
1.1503260135650635,0
1.1503260135650635,6
1.1503260135650635,0
1.1503260135650635,6
1.1503260135650635,0
1.1503260135650635,1
1.1503260135650635,0
1.1503260135650635,16
1.1503260135650635,3
1.1503260135650635,0
1.1503260135650635,2
1.1503260135650635,1
1.1503260135650635,6
1.344968557357788,0
1.344968557357788,0
1.344968557357788,4
1.344968557357788,0
1.344968557357788,3
1.344968557357788,0
1.344968557357788,1
1.344968557357788,2
1.344968557357788,12
1.344968557357788,7
1.344968557357788,3
1.344968557357788,0
1.344968557357788,0
1.344968557357788,10
1.344968557357788,0
1.344968557357788,0
1.344968557357788,4
1.344968557357788,0
1.344968557357788,1
1.5810041427612305,3
1.5810041427612305,0
1.5810041427612305,0
1.5810041427612305,5
1.5810041427612305,0
1.5810041427612305,0
1.5810041427612305,0
1.5810041427612305,0
1.5810041427612305,0
1.5810041427612305,3
1.5810041427612305,0
1.5810041427612305,0
1.5810041427612305,3
1.5810041427612305,0
1.5810041427612305,0
1.5810041427612305,0
1.5810041427612305,0
1.5810041427612305,0
1.5810041427612305,5
1.5810041427612305,12
1.5810041427612305,0
1.5810041427612305,4
1.5810041427612305,0
1.7329442501068115,0
1.7329442501068115,0
1.7329442501068115,0
1.7329442501068115,0
1.7329442501068115,0
1.7329442501068115,0
1.7329442501068115,0
1.7329442501068115,0
1.7329442501068115,4
1.7329442501068115,6
1.7329442501068115,2
1.7329442501068115,0
1.7329442501068115,0
1.7329442501068115,7
1.7329442501068115,0
1.862969160079956,1
1.862969160079956,0
1.862969160079956,0
1.862969160079956,0
1.862969160079956,4
1.862969160079956,0
1.862969160079956,1
1.862969160079956,0
1.862969160079956,0
1.862969160079956,0
1.862969160079956,0
1.862969160079956,0
1.862969160079956,0
1.971191167831421,0
1.971191167831421,2
1.971191167831421,0
1.971191167831421,0
1.971191167831421,0
1.971191167831421,0
1.971191167831421,3
1.971191167831421,0
1.971191167831421,0
1.971191167831421,3
2.0659549236297607,0
2.0659549236297607,0
2.0659549236297607,0
2.0659549236297607,0
2.0659549236297607,0
2.0659549236297607,0
2.0659549236297607,0
2.0659549236297607,1
2.0659549236297607,0
2.0659549236297607,1
2.1626715660095215,0
2.1626715660095215,1
2.1626715660095215,0
2.1626715660095215,5
2.1626715660095215,0
2.1626715660095215,1
2.1626715660095215,1
2.1626715660095215,0
2.1626715660095215,2
2.1626715660095215,2
2.268876791000366,0
2.268876791000366,9
2.268876791000366,17
2.268876791000366,0
2.268876791000366,0
2.268876791000366,0
2.268876791000366,1
2.268876791000366,11
2.268876791000366,0
2.268876791000366,3
2.3696908950805664,0
2.3696908950805664,0
2.3696908950805664,0
2.3696908950805664,0
2.3696908950805664,0
2.3696908950805664,0
2.3696908950805664,0
2.3696908950805664,0
2.3696908950805664,0
2.3696908950805664,0
2.465406894683838,0
2.465406894683838,0
2.465406894683838,0
2.465406894683838,0
2.465406894683838,0
2.465406894683838,0
2.465406894683838,0
2.465406894683838,5
2.465406894683838,0
2.570528030395508,3
2.570528030395508,0
2.570528030395508,0
2.570528030395508,6
2.570528030395508,0
2.570528030395508,4
2.570528030395508,0
2.570528030395508,1
2.570528030395508,6
2.570528030395508,5
2.6664607524871826,0
2.6664607524871826,0
2.6664607524871826,0
2.6664607524871826,9
2.6664607524871826,1
2.6664607524871826,3
2.6664607524871826,0
2.6716415882110596,0
2.6716415882110596,0
2.6716415882110596,0
2.7668073177337646,2
2.7668073177337646,5
2.7668073177337646,0
2.7668073177337646,4
2.7668073177337646,0
2.7668073177337646,4
2.7668073177337646,0
2.7668073177337646,0
2.7668073177337646,4
2.7668073177337646,2
2.863534927368164,0
2.863534927368164,0
2.863534927368164,12
2.863534927368164,0
2.863534927368164,1
2.863534927368164,0
2.863534927368164,6
2.863534927368164,0
2.863534927368164,6
2.959131956100464,1
2.959131956100464,1
2.959131956100464,0
2.959131956100464,1
2.959131956100464,3
2.959131956100464,0
2.959131956100464,0
2.959131956100464,0
2.959131956100464,0
2.959131956100464,2
3.0590426921844482,0
3.0590426921844482,0
3.061048984527588,0
3.061048984527588,2
3.061048984527588,0
3.061048984527588,0
3.061048984527588,2
3.061048984527588,0
3.061048984527588,0
3.159742593765259,0
3.159742593765259,0
3.159742593765259,2
3.159742593765259,0
3.159742593765259,3
3.159742593765259,5
3.159742593765259,4
3.159742593765259,0
3.159742593765259,1
3.159742593765259,0
3.261028528213501,7
3.261028528213501,0
3.261028528213501,0
3.261028528213501,0
3.261028528213501,5
3.261028528213501,0
3.261028528213501,3
3.261028528213501,0
3.261028528213501,0
3.261028528213501,0
3.3566315174102783,3
3.3566315174102783,0
3.3566315174102783,0
3.3566315174102783,0
3.3566315174102783,0
3.3566315174102783,0
3.3566315174102783,5
3.3566315174102783,16
3.3566315174102783,16
3.3566315174102783,6
3.461921215057373,1
3.461921215057373,1
3.461921215057373,0
3.461921215057373,0
3.461921215057373,0
3.461921215057373,0
3.461921215057373,1
3.461921215057373,4
3.461921215057373,0
3.461921215057373,0
3.562535047531128,5
3.562535047531128,2
3.562535047531128,0
3.562535047531128,3
3.562535047531128,0
3.562535047531128,0
3.562535047531128,0
3.562535047531128,1
3.562535047531128,0
3.562535047531128,0
3.6576037406921387,4
3.6576037406921387,0
3.6576037406921387,0
3.6576037406921387,0
3.6576037406921387,1
3.6576037406921387,0
3.6576037406921387,0
3.6576037406921387,0
3.6576037406921387,0
3.7535626888275146,0
3.7535626888275146,0
3.7535626888275146,0
3.7535626888275146,0
3.7535626888275146,0
3.7535626888275146,0
3.7535626888275146,0
3.7535626888275146,0
3.7535626888275146,0
3.7535626888275146,1
3.849773645401001,2
3.849773645401001,2
3.849773645401001,0
3.849773645401001,0
3.849773645401001,3
3.849773645401001,0
3.849773645401001,0
3.849773645401001,0
3.849773645401001,8
3.849773645401001,0
3.9442520141601562,1
3.9442520141601562,0
3.9442520141601562,0
3.9442520141601562,0
3.9442520141601562,0
3.9442520141601562,0
3.9442520141601562,0
3.9442520141601562,0
3.9442520141601562,0
4.040226459503174,0
4.040226459503174,0
4.040226459503174,0
4.040226459503174,0
4.040226459503174,7
4.040226459503174,0
4.040226459503174,2
4.040226459503174,0
4.040226459503174,0
4.040226459503174,3
4.135944843292236,0
4.135944843292236,0
4.135944843292236,4
4.135944843292236,0
4.135944843292236,0
4.135944843292236,0
4.135944843292236,0
4.135944843292236,0
4.135944843292236,0
4.2310895919799805,1
4.2310895919799805,0
4.2310895919799805,5
4.2310895919799805,0
4.2310895919799805,0
4.2310895919799805,0
4.246893882751465,0
4.246893882751465,0
4.246893882751465,0
4.246893882751465,2
4.342393159866333,0
4.342393159866333,5
4.342393159866333,0
4.342393159866333,1
4.342393159866333,6
4.342393159866333,15
4.342393159866333,0
4.342393159866333,3
4.342393159866333,0
4.438333511352539,1
4.438333511352539,3
4.438333511352539,9
4.438333511352539,1
4.438333511352539,0
4.438333511352539,1
4.438333511352539,0
4.438333511352539,0
4.438333511352539,10
4.438333511352539,10
4.533932685852051,4
4.533932685852051,0
4.533932685852051,0
4.533932685852051,3
4.533932685852051,0
4.533932685852051,5
4.533932685852051,1
4.533932685852051,0
4.533932685852051,10
4.613609075546265,0
4.613609075546265,4
4.613609075546265,0
4.613609075546265,3
4.613609075546265,0
4.613609075546265,2
4.613609075546265,0
4.613609075546265,0
4.613609075546265,1
4.719878673553467,0
4.719878673553467,2
4.719878673553467,0
4.719878673553467,0
4.719878673553467,2
4.719878673553467,1
4.719878673553467,0
4.719878673553467,0
4.719878673553467,0
4.719878673553467,9
4.81532096862793,7
4.81532096862793,0
4.81532096862793,0
4.81532096862793,10
4.81532096862793,63
4.81532096862793,7
4.81532096862793,1
4.81532096862793,7
4.81532096862793,0
4.900771379470825,2
4.900771379470825,0
4.900771379470825,0
4.900771379470825,0
4.900771379470825,3
4.900771379470825,0
4.900771379470825,0
4.900771379470825,0
4.900771379470825,0
4.996787071228027,0
4.996787071228027,6
4.996787071228027,4
4.996787071228027,0
4.996787071228027,0
4.996787071228027,0
4.996787071228027,0
4.996787071228027,0
4.996787071228027,0
5.091118812561035,0
5.091118812561035,0
5.091118812561035,1
5.091118812561035,0
5.091118812561035,3
5.091118812561035,0
5.091118812561035,0
5.091118812561035,0
5.091118812561035,0
5.091118812561035,3
5.187938213348389,0
5.187938213348389,6
5.187938213348389,0
5.187938213348389,1
5.187938213348389,0
5.187938213348389,1
5.187938213348389,0
5.187938213348389,0
5.187938213348389,0
5.283583402633667,0
5.283583402633667,0
5.283583402633667,0
5.283583402633667,0
5.283583402633667,0
5.283583402633667,0
5.283583402633667,0
5.283583402633667,0
5.283583402633667,0
5.3738791942596436,0
5.3738791942596436,14
5.3738791942596436,0
5.3738791942596436,0
5.3738791942596436,0
5.3738791942596436,0
5.3738791942596436,0
5.3738791942596436,0
5.3738791942596436,4
5.469675064086914,1
5.469675064086914,4
5.469675064086914,1
5.469675064086914,0
5.469675064086914,2
5.474066495895386,0
5.474066495895386,7
5.474066495895386,5
5.474066495895386,0
5.474066495895386,0
5.5634825229644775,2
5.5634825229644775,0
5.5634825229644775,0
5.5634825229644775,0
5.5634825229644775,1
5.5634825229644775,0
5.5634825229644775,0
5.5634825229644775,0
5.5634825229644775,2
5.662615776062012,0
5.662615776062012,0
5.662615776062012,0
5.662615776062012,9
5.662615776062012,3
5.662615776062012,5
5.662615776062012,10
5.662615776062012,0
5.662615776062012,27
5.790412664413452,72
5.790412664413452,21
5.790412664413452,68
5.790412664413452,1
5.790412664413452,0
5.790412664413452,4
5.790412664413452,0
5.790412664413452,2
5.790412664413452,3
5.790412664413452,22
5.790412664413452,18
5.790412664413452,3
5.790412664413452,22
5.885841131210327,4
5.885841131210327,90
5.885841131210327,107
5.885841131210327,4
5.885841131210327,2
5.885841131210327,19
5.885841131210327,3
5.885841131210327,1
5.885841131210327,0
5.9811694622039795,4
5.9811694622039795,21
5.9811694622039795,55
5.9811694622039795,11
5.9811694622039795,0
5.9811694622039795,38
5.9811694622039795,21
5.9811694622039795,8
5.9811694622039795,0
5.9811694622039795,5
6.076486349105835,0
6.076486349105835,74
6.076486349105835,5
6.076486349105835,0
6.076486349105835,3
6.076486349105835,13
6.076486349105835,11
6.076486349105835,18
6.076486349105835,0
6.172038316726685,1
6.172038316726685,12
6.172038316726685,0
6.172038316726685,0
6.172038316726685,0
6.172038316726685,6
6.172038316726685,2
6.172038316726685,0
6.172038316726685,0
6.172038316726685,0
6.2673869132995605,0
6.2673869132995605,0
6.2673869132995605,0
6.2673869132995605,0
6.2673869132995605,0
6.2673869132995605,4
6.2673869132995605,1
6.2673869132995605,10
6.2673869132995605,0
6.363476276397705,16
6.363476276397705,13
6.363476276397705,1
6.363476276397705,0
6.363476276397705,0
6.363476276397705,0
6.363476276397705,3
6.363476276397705,0
6.363476276397705,1
6.363476276397705,0
6.468589544296265,0
6.468589544296265,1
6.468589544296265,0
6.468589544296265,0
6.468589544296265,12
6.468589544296265,5
6.468589544296265,3
6.468589544296265,0
6.468589544296265,0
6.569187879562378,0
6.569187879562378,21
6.569187879562378,0
6.569187879562378,1
6.569187879562378,0
6.569187879562378,0
6.569187879562378,0
6.569187879562378,0
6.569187879562378,0
6.569187879562378,3
6.664062738418579,0
6.664062738418579,3
6.664062738418579,0
6.664062738418579,10
6.664062738418579,0
6.664062738418579,1
6.664062738418579,0
6.664062738418579,0
6.664062738418579,0
6.664062738418579,0
6.760296106338501,0
6.760296106338501,0
6.760296106338501,0
6.760296106338501,0
6.760296106338501,0
6.760296106338501,0
6.760296106338501,0
6.760296106338501,0
6.760296106338501,0
6.856856107711792,0
6.856856107711792,0
6.856856107711792,0
6.856856107711792,12
6.856856107711792,0
6.856856107711792,0
6.856856107711792,0
6.856856107711792,0
6.856856107711792,2
6.856856107711792,0
6.949867486953735,0
6.949867486953735,0
6.949867486953735,12
6.949867486953735,1
6.949867486953735,0
6.949867486953735,0
6.949867486953735,2
6.949867486953735,0
6.949867486953735,0
7.04547381401062,0
7.04547381401062,0
7.04547381401062,0
7.04547381401062,1
7.04547381401062,9
7.04547381401062,0
7.04547381401062,2
7.04547381401062,0
7.04547381401062,0
7.140930414199829,0
7.140930414199829,0
7.140930414199829,4
7.140930414199829,0
7.140930414199829,0
7.140930414199829,0
7.140930414199829,1
7.140930414199829,1
7.140930414199829,0
7.140930414199829,3
7.240528106689453,5
7.240528106689453,7
7.240528106689453,0
7.240528106689453,2
7.240528106689453,4
7.240528106689453,5
7.240528106689453,0
7.240528106689453,0
7.240528106689453,1
7.33278751373291,0
7.33278751373291,3
7.33278751373291,0
7.33278751373291,0
7.33278751373291,0
7.33278751373291,0
7.33278751373291,0
7.33278751373291,0
7.33278751373291,0
7.33278751373291,0
7.4288904666900635,0
7.4288904666900635,0
7.4288904666900635,1
7.4288904666900635,0
7.4288904666900635,0
7.4288904666900635,10
7.4288904666900635,0
7.4288904666900635,1
7.4288904666900635,0
7.525369882583618,0
7.525369882583618,0
7.525369882583618,0
7.525369882583618,2
7.525369882583618,0
7.525369882583618,0
7.525369882583618,0
7.525369882583618,0
7.525369882583618,14
7.619995355606079,5
7.619995355606079,0
7.619995355606079,1
7.619995355606079,0
7.619995355606079,0
7.619995355606079,1
7.619995355606079,5
7.619995355606079,7
7.619995355606079,0
7.619995355606079,0
7.7153236865997314,0
7.7153236865997314,0
7.7153236865997314,0
7.7153236865997314,10
7.7153236865997314,0
7.7153236865997314,1
7.7153236865997314,0
7.7153236865997314,2
7.7153236865997314,2
7.7153236865997314,0
7.821860074996948,0
7.821860074996948,3
7.821860074996948,0
7.821860074996948,8
7.821860074996948,8
7.821860074996948,1
7.821860074996948,1
7.821860074996948,0
7.821860074996948,0
7.821860074996948,4
7.922442436218262,11
7.922442436218262,9
7.922442436218262,14
7.922442436218262,7
7.922442436218262,1
7.922442436218262,0
7.922442436218262,20
7.922442436218262,0
7.922442436218262,0
8.020317077636719,0
8.020317077636719,0
8.020317077636719,0
8.020317077636719,0
8.020317077636719,0
8.020317077636719,4
8.020317077636719,8
8.020317077636719,0
8.022322654724121,4
8.022322654724121,0
8.116173028945923,0
8.116173028945923,51
8.116173028945923,10
8.116173028945923,124
8.116173028945923,101
8.116173028945923,63
8.116173028945923,31
8.116173028945923,4
8.116173028945923,34
8.208771228790283,14
8.208771228790283,60
8.208771228790283,116
8.208771228790283,24
8.208771228790283,220
8.208771228790283,35
8.208771228790283,8
8.208771228790283,130
8.208771228790283,267
8.303967952728271,9
8.303967952728271,82
8.303967952728271,96
8.303967952728271,39
8.304399490356445,442
8.304399490356445,97
8.304399490356445,65
8.304399490356445,3
8.304399490356445,161
8.304399490356445,21
8.398961067199707,173
8.398961067199707,180
8.398961067199707,0
8.398961067199707,60
8.398961067199707,0
8.398961067199707,47
8.398961067199707,24
8.398961067199707,99
8.398961067199707,2
8.478115558624268,32
8.478115558624268,179
8.478115558624268,8
8.478115558624268,207
8.478115558624268,52
8.478115558624268,178
8.478115558624268,7
8.478115558624268,189
8.4941725730896,158
8.599666595458984,13
8.599666595458984,42
8.599666595458984,31
8.599666595458984,7
8.599666595458984,280
8.599666595458984,13
8.599666595458984,159
8.599666595458984,11
8.599666595458984,95
8.599666595458984,0
8.70093584060669,165
8.70093584060669,55
8.70093584060669,3
8.70093584060669,83
8.70093584060669,275
8.70093584060669,26
8.70093584060669,3
8.70093584060669,1
8.70093584060669,4
8.70093584060669,6
8.803631782531738,29
8.803631782531738,30
8.803631782531738,15
8.803631782531738,13
8.803631782531738,15
8.803631782531738,404
8.803631782531738,54
8.803631782531738,122
8.803631782531738,165
8.803631782531738,176
8.904861211776733,169
8.904861211776733,53
8.904861211776733,35
8.904861211776733,45
8.904861211776733,17
8.906366109848022,9
8.906366109848022,227
8.906366109848022,140
8.906366109848022,36
8.906366109848022,59
9.007427453994751,25
9.007427453994751,175
9.007427453994751,29
9.007427453994751,3
9.007427453994751,44
9.007427453994751,114
9.007427453994751,402
9.007427453994751,190
9.007427453994751,213
9.007427453994751,55
9.096147775650024,13
9.096147775650024,16
9.096147775650024,20
9.096147775650024,182
9.096147775650024,19
9.096147775650024,50
9.096147775650024,5
9.096147775650024,153
9.096147775650024,93
9.096147775650024,68
9.20263957977295,17
9.20263957977295,0
9.20263957977295,193
9.20263957977295,82
9.20263957977295,34
9.20263957977295,14
9.20263957977295,79
9.20263957977295,120
9.20263957977295,19
9.20263957977295,78
9.300222635269165,53
9.300222635269165,0
9.300222635269165,23
9.300222635269165,11
9.300222635269165,99
9.300222635269165,98
9.300222635269165,135
9.300222635269165,106
9.300222635269165,125
9.399006605148315,35
9.399006605148315,257
9.399006605148315,231
9.399006605148315,264
9.399006605148315,93
9.399006605148315,25
9.399006605148315,18
9.399006605148315,25
9.399006605148315,148
9.399006605148315,76
9.49620270729065,0
9.49620270729065,52
9.49620270729065,256
9.49620270729065,62
9.49620270729065,45
9.49620270729065,197
9.49620270729065,4
9.49620270729065,1
9.49620270729065,17
9.599563837051392,228
9.599563837051392,9
9.599563837051392,7
9.599563837051392,3
9.599563837051392,42
9.601568937301636,32
9.601568937301636,417
9.601568937301636,7
9.601568937301636,12
9.601568937301636,46
9.703070163726807,51
9.703070163726807,211
9.703070163726807,80
9.703070163726807,42
9.703070163726807,5
9.703070163726807,23
9.703070163726807,0
9.703070163726807,75
9.703070163726807,22
9.705074787139893,0
9.806257963180542,172
9.806257963180542,17
9.806257963180542,235
9.806257963180542,21
9.806257963180542,57
9.806257963180542,70
9.806257963180542,3
9.806257963180542,1
9.806257963180542,112
9.806257963180542,30
9.806257963180542,67
9.903085470199585,10
9.903085470199585,12
9.903085470199585,1
9.903085470199585,265
9.903085470199585,13
9.903085470199585,118
9.903085470199585,10
9.903085470199585,4
9.903085470199585,62
9.903085470199585,229
10.012257814407349,167
10.012257814407349,23
10.012257814407349,0
10.012257814407349,94
10.012257814407349,25
10.012257814407349,46
10.012257814407349,30
10.012257814407349,27
10.012257814407349,103
10.012257814407349,35
10.109517097473145,44
10.109517097473145,3
10.109517097473145,62
10.109517097473145,34
10.109517097473145,11
10.109517097473145,86
10.109517097473145,31
10.109517097473145,108
10.109517097473145,37
10.109517097473145,41
10.214545488357544,99
10.214545488357544,7
10.214545488357544,27
10.214545488357544,148
10.214545488357544,112
10.214545488357544,26
10.214545488357544,92
10.214545488357544,57
10.214545488357544,5
10.214545488357544,8
10.315159320831299,16
10.315159320831299,10
10.315159320831299,227
10.315159320831299,804
10.315159320831299,120
10.315159320831299,46
10.317165851593018,3
10.317165851593018,27
10.317165851593018,50
10.410917043685913,18
10.410917043685913,53
10.410917043685913,102
10.410917043685913,8
10.410917043685913,85
10.410917043685913,99
10.410917043685913,34
10.410917043685913,0
10.410917043685913,155
10.410917043685913,340
10.506799221038818,24
10.506799221038818,132
10.506799221038818,1
10.506799221038818,112
10.506799221038818,151
10.506799221038818,20
10.506799221038818,28
10.506799221038818,40
10.506799221038818,18
10.506799221038818,154
10.613080739974976,74
10.613080739974976,24
10.613080739974976,195
10.613080739974976,72
10.613080739974976,152
10.613080739974976,62
10.613080739974976,146
10.613080739974976,21
10.613080739974976,15
10.708882331848145,38
10.708882331848145,8
10.708882331848145,198
10.708882331848145,0
10.708882331848145,168
10.708882331848145,21
10.708882331848145,79
10.708882331848145,101
10.708882331848145,106
10.708882331848145,74
10.808598756790161,57
10.808598756790161,151
10.808598756790161,11
10.808598756790161,310
10.808598756790161,43
10.808598756790161,107
10.808598756790161,58
10.808598756790161,159
10.808598756790161,87
10.808598756790161,29
10.901549339294434,0
10.901549339294434,7
10.901549339294434,95
10.901549339294434,10
10.901549339294434,101
10.901549339294434,253
10.901549339294434,3
10.901549339294434,49
10.901549339294434,0
11.002370834350586,86
11.002370834350586,75
11.002370834350586,12
11.002370834350586,54
11.002370834350586,41
11.002370834350586,21
11.002370834350586,274
11.002370834350586,47
11.002370834350586,165
11.002370834350586,31
11.102813482284546,0
11.102813482284546,12
11.102813482284546,54
11.102813482284546,182
11.102813482284546,108
11.102813482284546,10
11.102813482284546,52
11.102813482284546,8
11.102813482284546,15
11.204899549484253,27
11.204899549484253,46
11.204899549484253,54
11.204899549484253,14
11.204899549484253,3
11.204899549484253,5
11.204899549484253,151
11.204899549484253,434
11.204899549484253,28
11.204899549484253,11
11.297882318496704,68
11.297882318496704,0
11.297882318496704,17
11.297882318496704,117
11.297882318496704,46
11.297882318496704,53
11.297882318496704,59
11.297882318496704,100
11.30818247795105,784
11.30818247795105,13
11.30818247795105,6
11.408730030059814,19
11.408730030059814,209
11.408730030059814,7
11.408730030059814,7
11.408730030059814,29
11.408730030059814,12
11.408730030059814,62
11.408730030059814,20
11.408730030059814,16
11.50991177558899,24
11.50991177558899,114
11.50991177558899,26
11.50991177558899,0
11.50991177558899,21
11.50991177558899,1
11.50991177558899,84
11.50991177558899,7
11.50991177558899,105
11.50991177558899,135
11.613166093826294,18
11.613166093826294,45
11.613166093826294,24
11.613166093826294,40
11.613166093826294,399
11.613166093826294,12
11.613166093826294,1
11.613166093826294,0
11.613166093826294,10
11.613166093826294,54
11.712905645370483,25
11.712905645370483,115
11.712905645370483,57
11.712905645370483,1
11.712905645370483,0
11.712905645370483,3
11.712905645370483,1
11.712905645370483,1
11.712905645370483,53
11.712905645370483,383
11.806859493255615,611
11.806859493255615,23
11.806859493255615,76
11.806859493255615,116
11.806859493255615,7
11.806859493255615,31
11.806859493255615,0
11.806859493255615,278
11.806859493255615,197
11.806859493255615,196
11.912290096282959,99
11.912290096282959,177
11.912290096282959,440
11.912290096282959,107
11.912290096282959,28
11.912290096282959,337
11.912290096282959,148
11.912290096282959,7
11.912290096282959,50
11.912290096282959,8
12.010571956634521,334
12.010571956634521,35
12.012306690216064,64
12.012306690216064,1
12.012306690216064,208
12.012306690216064,57
12.012747049331665,178
12.012747049331665,506
12.012747049331665,4
12.091811895370483,11
12.091811895370483,17
12.091811895370483,43
12.091811895370483,413
12.091811895370483,341
12.091811895370483,41
12.091811895370483,22
12.091811895370483,14
12.091811895370483,0
12.091811895370483,0
12.197757005691528,0
12.197757005691528,5
12.197757005691528,478
12.197757005691528,20
12.197757005691528,2
12.197757005691528,15
12.197757005691528,218
12.197757005691528,15
12.19976258277893,126
12.290705680847168,65
12.292710781097412,1
12.292710781097412,116
12.292710781097412,78
12.292710781097412,4
12.292710781097412,8
12.292710781097412,2
12.292710781097412,7
12.292710781097412,21
12.385403871536255,0
12.385403871536255,4
12.385403871536255,11
12.385403871536255,10
12.385403871536255,12
12.385403871536255,184
12.385403871536255,177
12.385403871536255,316
12.385403871536255,0
12.478816986083984,11
12.478816986083984,7
12.478816986083984,0
12.478816986083984,0
12.478816986083984,0
12.478816986083984,4
12.478816986083984,12
12.478816986083984,0
12.478816986083984,93
12.568770170211792,5
12.568770170211792,0
12.568770170211792,25
12.568770170211792,91
12.568770170211792,143
12.568770170211792,5
12.568770170211792,129
12.568770170211792,16
12.568770170211792,18
12.568770170211792,45
12.673877000808716,0
12.673877000808716,2
12.673877000808716,1
12.673877000808716,0
12.673877000808716,9
12.673877000808716,0
12.673877000808716,46
12.673877000808716,25
12.673877000808716,1
12.770715236663818,3
12.770715236663818,190
12.770715236663818,7
12.770715236663818,542
12.770715236663818,26
12.770715236663818,2
12.770715236663818,3
12.770715236663818,9
12.770715236663818,82
12.770715236663818,0
12.86963963508606,8
12.86963963508606,15
12.86963963508606,14
12.86963963508606,44
12.86963963508606,18
12.871145963668823,41
12.871145963668823,55
12.871145963668823,0
12.871145963668823,7
12.871145963668823,5
12.966541290283203,36
12.966541290283203,88
12.966541290283203,148
12.966541290283203,161
12.966541290283203,13
12.966541290283203,0
12.966541290283203,171
12.966541290283203,50
12.966541290283203,17
13.064039707183838,7
13.064039707183838,91
13.064039707183838,0
13.064039707183838,45
13.064039707183838,0
13.064039707183838,0
13.064039707183838,27
13.064039707183838,59
13.064039707183838,0
13.064039707183838,3
13.16060733795166,0
13.16060733795166,8
13.16060733795166,0
13.16060733795166,18
13.16060733795166,0
13.16060733795166,20
13.16060733795166,10
13.16060733795166,1
13.16060733795166,105
13.25636887550354,99
13.25636887550354,22
13.25636887550354,0
13.25636887550354,17
13.25636887550354,36
13.25636887550354,0
13.25636887550354,0
13.25636887550354,0
13.25636887550354,0
13.346998929977417,0
13.346998929977417,0
13.346998929977417,1
13.346998929977417,7
13.346998929977417,10
13.346998929977417,0
13.346998929977417,0
13.346998929977417,10
13.346998929977417,2
13.346998929977417,23
13.447853326797485,105
13.447853326797485,106
13.447853326797485,126
13.447853326797485,22
13.447853326797485,0
13.447853326797485,0
13.447853326797485,30
13.447853326797485,11
13.447853326797485,7
13.54484510421753,46
13.54484510421753,49
13.54484510421753,232
13.54484510421753,0
13.54484510421753,26
13.54484510421753,89
13.54484510421753,16
13.54484510421753,17
13.54484510421753,9
13.54484510421753,15
13.639864683151245,34
13.639864683151245,138
13.639864683151245,41
13.639864683151245,78
13.639864683151245,3
13.639864683151245,34
13.639864683151245,15
13.639864683151245,19
13.639864683151245,17
13.732730150222778,46
13.732730150222778,32
13.732730150222778,86
13.732730150222778,23
13.734735488891602,44
13.734735488891602,6
13.734735488891602,180
13.734735488891602,144
13.734735488891602,1
13.827982902526855,3
13.827982902526855,21
13.827982902526855,22
13.827982902526855,68
13.827982902526855,88
13.827982902526855,87
13.827982902526855,7
13.827982902526855,10
13.827982902526855,1
13.923374652862549,56
13.923374652862549,31
13.923374652862549,3
13.923374652862549,31
13.923374652862549,44
13.923374652862549,8
13.923374652862549,0
13.923374652862549,12
13.923374652862549,17
13.923374652862549,81
14.01300597190857,273
14.01300597190857,35
14.01300597190857,10
14.01300597190857,0
14.01300597190857,5
14.01300597190857,42
14.01300597190857,8
14.01300597190857,14
14.01300597190857,5
14.118383169174194,19
14.118383169174194,21
14.118383169174194,1
14.118383169174194,1
14.118383169174194,45
14.118383169174194,49
14.118383169174194,6
14.118383169174194,0
14.118383169174194,4
14.118383169174194,0
14.213804483413696,0
14.213804483413696,0
14.213804483413696,30
14.213804483413696,33
14.213804483413696,132
14.213804483413696,22
14.213804483413696,0
14.213804483413696,5
14.213804483413696,0
14.312952995300293,1
14.312952995300293,0
14.312952995300293,0
14.312952995300293,0
14.312952995300293,0
14.312952995300293,0
14.312952995300293,0
14.312952995300293,9
14.312952995300293,1
14.312952995300293,14
14.409452199935913,0
14.409452199935913,0
14.409452199935913,3
14.409452199935913,2
14.409452199935913,0
14.409452199935913,0
14.409452199935913,0
14.409452199935913,0
14.409452199935913,0
14.409452199935913,0
14.505496740341187,0
14.505496740341187,2
14.505496740341187,0
14.505496740341187,5
14.505496740341187,0
14.505496740341187,1
14.505496740341187,0
14.505496740341187,0
14.505496740341187,0
14.584454774856567,0
14.584454774856567,0
14.584454774856567,0
14.584454774856567,0
14.584454774856567,0
14.584454774856567,3
14.584454774856567,0
14.584454774856567,0
14.584454774856567,0
14.693643808364868,7
14.693643808364868,0
14.693643808364868,0
14.693643808364868,0
14.693643808364868,0
14.693643808364868,0
14.693643808364868,0
14.693643808364868,0
14.693643808364868,0
14.695649147033691,0
14.788380861282349,0
14.788380861282349,0
14.788380861282349,0
14.788380861282349,2
14.788380861282349,0
14.788380861282349,1
14.788380861282349,0
14.788380861282349,4
14.788380861282349,0
14.882170677185059,4
14.882170677185059,1
14.882170677185059,0
14.882170677185059,5
14.882170677185059,3
14.882170677185059,0
14.882170677185059,1
14.882170677185059,0
14.882170677185059,4
14.981059312820435,0
14.981059312820435,0
14.981059312820435,0
14.981059312820435,2
14.981059312820435,0
14.981059312820435,0
14.981059312820435,0
14.981059312820435,0
14.981059312820435,0
14.981059312820435,0
15.077735185623169,0
15.077735185623169,3
15.077735185623169,121
15.077735185623169,0
15.077735185623169,6
15.077735185623169,0
15.077735185623169,0
15.077735185623169,1
15.077735185623169,208
15.175439357757568,24
15.175439357757568,1
15.175439357757568,0
15.177444458007812,2
15.177444458007812,1
15.177444458007812,7
15.177444458007812,34
15.177444458007812,54
15.177444458007812,67
15.177444458007812,21
15.266937494277954,5
15.266937494277954,0
15.266937494277954,0
15.266937494277954,0
15.266937494277954,34
15.266937494277954,102
15.266937494277954,12
15.266937494277954,2
15.266937494277954,6
15.369425296783447,1
15.369425296783447,3
15.369425296783447,4
15.369425296783447,0
15.369425296783447,4
15.369425296783447,3
15.369425296783447,6
15.369425296783447,0
15.369425296783447,0
15.369425296783447,1
15.45732045173645,187
15.45732045173645,49
15.45732045173645,15
15.45732045173645,0
15.45732045173645,0
15.45732045173645,0
15.45732045173645,1
15.45732045173645,0
15.45732045173645,2
15.561959981918335,0
15.561959981918335,0
15.561959981918335,0
15.561959981918335,2
15.561959981918335,0
15.561959981918335,0
15.561959981918335,0
15.561959981918335,3
15.561959981918335,0
15.561959981918335,0
15.660845756530762,0
15.660845756530762,0
15.660845756530762,0
15.660845756530762,0
15.660845756530762,0
15.660845756530762,0
15.660845756530762,0
15.660845756530762,0
15.660845756530762,0
15.660845756530762,0
15.758838415145874,0
15.758838415145874,0
15.758838415145874,0
15.758838415145874,0
15.758838415145874,4
15.758838415145874,0
15.758838415145874,0
15.758838415145874,0
15.758838415145874,1
15.858481884002686,0
15.858481884002686,10
15.858481884002686,0
15.858481884002686,0
15.858481884002686,0
15.858481884002686,0
15.858481884002686,112
15.858481884002686,48
15.858481884002686,1
15.858481884002686,2
15.955398797988892,0
15.955398797988892,2
15.955398797988892,0
15.955398797988892,1
15.955398797988892,0
15.955398797988892,0
15.955398797988892,4
15.955398797988892,0
15.955398797988892,0
15.955398797988892,0
16.042762756347656,0
16.042762756347656,0
16.042762756347656,0
16.042762756347656,33
16.042762756347656,44
16.042762756347656,5
16.042762756347656,169
16.042762756347656,4
16.042762756347656,1
16.138570547103882,10
16.138570547103882,0
16.138570547103882,5
16.138570547103882,0
16.138570547103882,32
16.138570547103882,46
16.138570547103882,93
16.138570547103882,73
16.138570547103882,0
16.23496127128601,3
16.23496127128601,18
16.23496127128601,9
16.23496127128601,27
16.23496127128601,31
16.23496127128601,2
16.23496127128601,5
16.23496127128601,0
16.23496127128601,80
16.33635950088501,24
16.33635950088501,16
16.33635950088501,45
16.33635950088501,71
16.33635950088501,56
16.33635950088501,0
16.33635950088501,40
16.33635950088501,11
16.33635950088501,0
16.33635950088501,29
16.44084930419922,0
16.44084930419922,56
16.44084930419922,0
16.44084930419922,13
16.44084930419922,0
16.44084930419922,2
16.44084930419922,6
16.44084930419922,0
16.44084930419922,0
16.44084930419922,9
16.545589208602905,7
16.545589208602905,2
16.545589208602905,11
16.545589208602905,0
16.545589208602905,1
16.545589208602905,2
16.545589208602905,38
16.545589208602905,1
16.545589208602905,0
16.545589208602905,0
16.64948344230652,0
16.64948344230652,0
16.64948344230652,1
16.64948344230652,0
16.64948344230652,0
16.64948344230652,0
16.64948344230652,0
16.64948344230652,1
16.64948344230652,0
16.64948344230652,0
16.64948344230652,0
16.743409633636475,9
16.743409633636475,21
16.743409633636475,2
16.743409633636475,5
16.743409633636475,0
16.743409633636475,2
16.743409633636475,10
16.743409633636475,1
16.743409633636475,0
16.849979400634766,0
16.849979400634766,1
16.849979400634766,0
16.849979400634766,0
16.849979400634766,0
16.849979400634766,0
16.849979400634766,0
16.849979400634766,0
16.849979400634766,0
16.849979400634766,0
16.949498176574707,0
16.949498176574707,0
16.949498176574707,0
16.949498176574707,0
16.949498176574707,0
16.949498176574707,0
16.949498176574707,0
16.949498176574707,0
16.949498176574707,1
16.949498176574707,0
17.04530692100525,0
17.04530692100525,0
17.04530692100525,2
17.04530692100525,2
17.04530692100525,0
17.04530692100525,0
17.04530692100525,1
17.04530692100525,0
17.04530692100525,0
17.04530692100525,0
17.140599489212036,2
17.140599489212036,0
17.140599489212036,2
17.140599489212036,0
17.140599489212036,0
17.140599489212036,0
17.140599489212036,0
17.140599489212036,86
17.140599489212036,2
17.140599489212036,0
17.248335361480713,0
17.248335361480713,0
17.248335361480713,0
17.248335361480713,0
17.248335361480713,0
17.248335361480713,2
17.248335361480713,0
17.248335361480713,0
17.248335361480713,0
17.347439289093018,0
17.347439289093018,14
17.347439289093018,0
17.347439289093018,0
17.347439289093018,30
17.347439289093018,7
17.347439289093018,1
17.347439289093018,0
17.347439289093018,0
17.347439289093018,0
17.449365377426147,0
17.449365377426147,0
17.449365377426147,102
17.449365377426147,6
17.449365377426147,0
17.449365377426147,37
17.449365377426147,46
17.449365377426147,5
17.449365377426147,138
17.449365377426147,36
17.539867877960205,64
17.539867877960205,0
17.539867877960205,26
17.539867877960205,2
17.539867877960205,12
17.539867877960205,24
17.539867877960205,27
17.539867877960205,19
17.539867877960205,45
17.539867877960205,16
17.651649951934814,2
17.651649951934814,0
17.651649951934814,0
17.651649951934814,6
17.651649951934814,7
17.651649951934814,17
17.651649951934814,0
17.651649951934814,4
17.651649951934814,9
17.651649951934814,0
17.74879813194275,0
17.74879813194275,31
17.74988055229187,17
17.74988055229187,14
17.74988055229187,0
17.74988055229187,2
17.74988055229187,25
17.74988055229187,43
17.74988055229187,24
17.74988055229187,0
17.841684103012085,0
17.841684103012085,0
17.841684103012085,0
17.841684103012085,0
17.841684103012085,0
17.841684103012085,0
17.841684103012085,0
17.841684103012085,0
17.841684103012085,10
17.937432527542114,0
17.937432527542114,0
17.937432527542114,0
17.937432527542114,0
17.937432527542114,0
17.937432527542114,0
17.937432527542114,0
17.937432527542114,0
17.937432527542114,3
17.937432527542114,0
18.03307032585144,0
18.03307032585144,15
18.03307032585144,2
18.03307032585144,0
18.03307032585144,0
18.03307032585144,0
18.03307032585144,0
18.03307032585144,2
18.03307032585144,0
18.128813982009888,0
18.128813982009888,0
18.128813982009888,0
18.128813982009888,0
18.128813982009888,0
18.128813982009888,5
18.128813982009888,15
18.128813982009888,0
18.128813982009888,0
18.128813982009888,1
18.22491431236267,2
18.22491431236267,0
18.22491431236267,0
18.22491431236267,0
18.22491431236267,0
18.22491431236267,2
18.22491431236267,5
18.22491431236267,0
18.22491431236267,1
18.32004404067993,0
18.32004404067993,0
18.32004404067993,3
18.32004404067993,12
18.32004404067993,15
18.32004404067993,13
18.32004404067993,0
18.32004404067993,4
18.32004404067993,0
18.32004404067993,93
18.424943685531616,3
18.424943685531616,3
18.424943685531616,228
18.424943685531616,5
18.424943685531616,27
18.424943685531616,0
18.424943685531616,33
18.424943685531616,73
18.424943685531616,35
18.526238441467285,35
18.526238441467285,53
18.526238441467285,23
18.526238441467285,70
18.526238441467285,7
18.526238441467285,94
18.526238441467285,93
18.526238441467285,119
18.526238441467285,31
18.526238441467285,8
18.62079167366028,361
18.62079167366028,28
18.62079167366028,86
18.62079167366028,43
18.62079167366028,46
18.62079167366028,6
18.62079167366028,241
18.62079167366028,13
18.62079167366028,122
18.62079167366028,22
18.728877067565918,120
18.728877067565918,50
18.728877067565918,18
18.728877067565918,40
18.728877067565918,104
18.728877067565918,161
18.728877067565918,9
18.728877067565918,48
18.728877067565918,206
18.728877067565918,2
18.823880672454834,197
18.823880672454834,102
18.823880672454834,21
18.823880672454834,299
18.823880672454834,34
18.823880672454834,7
18.823880672454834,73
18.823880672454834,26
18.823880672454834,18
18.918711185455322,85
18.918711185455322,7
18.918711185455322,53
18.918711185455322,29
18.918711185455322,0
18.918711185455322,17
18.918711185455322,26
18.918711185455322,62
18.918711185455322,61
18.918711185455322,29
19.01419234275818,272
19.01419234275818,120
19.01419234275818,16
19.01419234275818,29
19.01419234275818,45
19.01419234275818,3
19.01419234275818,31
19.01419234275818,354
19.01419234275818,95
19.11503839492798,38
19.11503839492798,89
19.116941213607788,49
19.116941213607788,13
19.116941213607788,165
19.116941213607788,216
19.116941213607788,14
19.116941213607788,142
19.116941213607788,25
19.116941213607788,66
19.211754083633423,251
19.211754083633423,7
19.211754083633423,120
19.211754083633423,52
19.211754083633423,133
19.211754083633423,116
19.211754083633423,45
19.211754083633423,9
19.211754083633423,77
19.306646585464478,138
19.306646585464478,12
19.306646585464478,28
19.306646585464478,0
19.306646585464478,0
19.306646585464478,71
19.306646585464478,89
19.306646585464478,213
19.306646585464478,80
19.40124487876892,232
19.40124487876892,52
19.40124487876892,49
19.40124487876892,64
19.40124487876892,37
19.40124487876892,79
19.40124487876892,25
19.40124487876892,155
19.40124487876892,43
19.40124487876892,73
19.497474193572998,398
19.497474193572998,96
19.497474193572998,32
19.497474193572998,23
19.497474193572998,387
19.497474193572998,70
19.497474193572998,46
19.497474193572998,21
19.497474193572998,33
19.593460083007812,4
19.593460083007812,115
19.593460083007812,134
19.593460083007812,1
19.593460083007812,9
19.593460083007812,25
19.593460083007812,24
19.593460083007812,66
19.593460083007812,26
19.593460083007812,125
19.689671277999878,178
19.689671277999878,14
19.689671277999878,22
19.689671277999878,68
19.689671277999878,154
19.689671277999878,20
19.689671277999878,4
19.689671277999878,24
19.689671277999878,59
19.785481214523315,93
19.785481214523315,134
19.785481214523315,8
19.785481214523315,37
19.785481214523315,4
19.785481214523315,82
19.785481214523315,602
19.785481214523315,34
19.785481214523315,12
19.881345748901367,12
19.881345748901367,35
19.881345748901367,1
19.881345748901367,1
19.881345748901367,5
19.881345748901367,0
19.881345748901367,43
19.881345748901367,37
19.881345748901367,127
19.881345748901367,88
19.977097034454346,133
19.977097034454346,100
19.977097034454346,86
19.977097034454346,59
19.977097034454346,25
19.977097034454346,56
19.977097034454346,273
19.977097034454346,46
19.977097034454346,114
19.977097034454346,0
20.08812427520752,0
20.08812427520752,14
20.08812427520752,0
20.08812427520752,75
20.08812427520752,46
20.08812427520752,24
20.08812427520752,87
20.08812427520752,90
20.08812427520752,44
20.08812427520752,33
20.191765546798706,12
20.191765546798706,139
20.191765546798706,75
20.191765546798706,1
20.191765546798706,2
20.191765546798706,93
20.191765546798706,70
20.191765546798706,125
20.191765546798706,25
20.191765546798706,13
20.29461121559143,138
20.29461121559143,75
20.29461121559143,10
20.29461121559143,125
20.29461121559143,5
20.29461121559143,13
20.29461121559143,2
20.29461121559143,164
20.29461121559143,39
20.29461121559143,54
20.389791250228882,135
20.389791250228882,98
20.389791250228882,169
20.389791250228882,47
20.389791250228882,31
20.389791250228882,168
20.389791250228882,1
20.389791250228882,1
20.389791250228882,140
20.389791250228882,7
20.486820936203003,200
20.486820936203003,108
20.486820936203003,5
20.486820936203003,424
20.486820936203003,15
20.486820936203003,0
20.486820936203003,72
20.486820936203003,13
20.486820936203003,44
20.486820936203003,21
20.596683502197266,115
20.596683502197266,55
20.596683502197266,191
20.596683502197266,84
20.596683502197266,26
20.596683502197266,1
20.596683502197266,17
20.596683502197266,40
20.596683502197266,41
20.596683502197266,42
20.691712379455566,27
20.691712379455566,40
20.691712379455566,0
20.691712379455566,167
20.691712379455566,80
20.691712379455566,27
20.691712379455566,113
20.691712379455566,123
20.707664489746094,284
20.707664489746094,58
20.809163331985474,11
20.809163331985474,5
20.809163331985474,17
20.809163331985474,27
20.809163331985474,148
20.809163331985474,127
20.809163331985474,225
20.809163331985474,3
20.809163331985474,13
20.809163331985474,94
20.908117532730103,183
20.908117532730103,2
20.908117532730103,7
20.908117532730103,193
20.908117532730103,22
20.908117532730103,20
20.908117532730103,25
20.908117532730103,60
20.908117532730103,118
20.908117532730103,40
21.009602308273315,22
21.009602308273315,3
21.009602308273315,158
21.009602308273315,37
21.009602308273315,9
21.009602308273315,104
21.009602308273315,40
21.009602308273315,24
21.009602308273315,4
21.009602308273315,218
21.105842351913452,135
21.105842351913452,162
21.105842351913452,0
21.105842351913452,73
21.105842351913452,120
21.105842351913452,112
21.105842351913452,68
21.105842351913452,168
21.105842351913452,14
21.105842351913452,28
21.211703300476074,247
21.211703300476074,111
21.211703300476074,88
21.211703300476074,75
21.211703300476074,5
21.211703300476074,58
21.211703300476074,13
21.211703300476074,121
21.211703300476074,44
21.211703300476074,10
21.31304907798767,15
21.31304907798767,73
21.31304907798767,79
21.31304907798767,8
21.31304907798767,70
21.31304907798767,79
21.31304907798767,116
21.31304907798767,201
21.31304907798767,14
21.31304907798767,5
21.412596225738525,104
21.412596225738525,194
21.412596225738525,25
21.412596225738525,139
21.412596225738525,75
21.412596225738525,0
21.412596225738525,2
21.412596225738525,26
21.412596225738525,14
21.50433087348938,26
21.50433087348938,16
21.50433087348938,5
21.50433087348938,1
21.50433087348938,16
21.50433087348938,15
21.50433087348938,598
21.50433087348938,27
21.50433087348938,43
21.50433087348938,28
21.60989737510681,11
21.60989737510681,136
21.60989737510681,8
21.60989737510681,1
21.60989737510681,83
21.60989737510681,0
21.60989737510681,1
21.60989737510681,2
21.60989737510681,63
21.60989737510681,11
21.71146321296692,21
21.71146321296692,61
21.71146321296692,86
21.71146321296692,20
21.71146321296692,24
21.71146321296692,0
21.71146321296692,0
21.71146321296692,0
21.71146321296692,0
21.71146321296692,1
21.806389093399048,92
21.806389093399048,18
21.806389093399048,5
21.806389093399048,2
21.806389093399048,1
21.806389093399048,7
21.806389093399048,0
21.806389093399048,0
21.806389093399048,0
21.90125823020935,0
21.90125823020935,0
21.90125823020935,0
21.90125823020935,0
21.90125823020935,1
21.90125823020935,9
21.90125823020935,5
21.90125823020935,0
21.90125823020935,3
21.90125823020935,12
21.997042894363403,0
21.997042894363403,4
21.997042894363403,0
21.997042894363403,4
21.997042894363403,0
21.997042894363403,0
21.997042894363403,2
21.997042894363403,0
21.997042894363403,0
21.997042894363403,4
22.111046075820923,0
22.111046075820923,0
22.111046075820923,13
22.111046075820923,0
22.111046075820923,3
22.111046075820923,0
22.111046075820923,3
22.111046075820923,0
22.111046075820923,0
22.111046075820923,0
22.203248500823975,0
22.203248500823975,0
22.203248500823975,8
22.203248500823975,3
22.203248500823975,0
22.203248500823975,0
22.203248500823975,0
22.203248500823975,7
22.203248500823975,0
22.203248500823975,12
22.29915475845337,0
22.29915475845337,6
22.309414625167847,0
22.309414625167847,0
22.309414625167847,0
22.309414625167847,0
22.309414625167847,0
22.309414625167847,0
22.309414625167847,0
22.41080403327942,0
22.41080403327942,3
22.41080403327942,0
22.41080403327942,0
22.41080403327942,0
22.41080403327942,0
22.41080403327942,8
22.41080403327942,0
22.41080403327942,0
22.41080403327942,0
22.50621271133423,0
22.50621271133423,7
22.50621271133423,0
22.50621271133423,0
22.50621271133423,3
22.50621271133423,0
22.50621271133423,0
22.50621271133423,0
22.50621271133423,11
22.50621271133423,14
22.612038135528564,1
22.612038135528564,1
22.612038135528564,2
22.612038135528564,3
22.612038135528564,0
22.612038135528564,0
22.612038135528564,0
22.612038135528564,1
22.612038135528564,4
22.612038135528564,0
22.612038135528564,0
22.713509798049927,2
22.713509798049927,0
22.713509798049927,0
22.713509798049927,0
22.713509798049927,0
22.713509798049927,1
22.713509798049927,0
22.713509798049927,0
22.713509798049927,20
22.713509798049927,0
22.81846046447754,1
22.81846046447754,1
22.81846046447754,11
22.81846046447754,0
22.81846046447754,0
22.81846046447754,0
22.81846046447754,6
22.81846046447754,0
22.81846046447754,1
22.904340028762817,0
22.904340028762817,5
22.904340028762817,4
22.904340028762817,0
22.904340028762817,0
22.904340028762817,0
22.904340028762817,5
22.904340028762817,3
22.904340028762817,0
22.904340028762817,5
22.999075651168823,0
22.999075651168823,0
22.999075651168823,0
22.999075651168823,3
22.999075651168823,2
22.999075651168823,0
22.999075651168823,0
22.999075651168823,3
22.999075651168823,0
23.07851791381836,0
23.07851791381836,10
23.07851791381836,0
23.07851791381836,0
23.09451985359192,0
23.09451985359192,8
23.09451985359192,0
23.09451985359192,0
23.09451985359192,2
23.174072265625,0
23.174072265625,0
23.174072265625,6
23.174072265625,5
23.174072265625,0
23.174072265625,0
23.174072265625,2
23.174072265625,0
23.174072265625,2
23.269160747528076,0
23.269160747528076,0
23.269160747528076,0
23.269160747528076,0
23.269160747528076,0
23.269160747528076,0
23.269160747528076,3
23.269160747528076,0
23.269160747528076,0
23.36419939994812,3
23.36419939994812,0
23.36419939994812,0
23.36419939994812,6
23.36419939994812,0
23.36419939994812,0
23.36419939994812,0
23.36419939994812,0
23.36419939994812,0
23.460869073867798,0
23.460869073867798,0
23.460869073867798,0
23.460869073867798,0
23.460869073867798,0
23.460869073867798,0
23.460869073867798,1
23.460869073867798,0
23.460869073867798,0
23.54001808166504,0
23.54001808166504,0
23.54001808166504,10
23.54001808166504,0
23.54001808166504,0
23.54001808166504,2
23.54001808166504,0
23.54001808166504,0
23.54001808166504,0
23.63570809364319,5
23.63570809364319,0
23.63570809364319,0
23.63570809364319,3
23.63570809364319,0
23.63570809364319,4
23.63570809364319,0
23.63570809364319,0
23.63570809364319,0
23.742372274398804,0
23.742372274398804,0
23.742372274398804,0
23.742372274398804,11
23.742372274398804,0
23.742372274398804,0
23.742372274398804,0
23.742372274398804,0
23.742372274398804,0
23.827855348587036,2
23.827855348587036,0
23.827855348587036,0
23.827855348587036,0
23.827855348587036,0
23.827855348587036,0
23.827855348587036,0
23.827855348587036,0
23.841681480407715,2
23.841681480407715,0
23.92223286628723,1
23.92223286628723,0
23.92223286628723,0
23.92223286628723,0
23.92223286628723,3
23.92223286628723,0
23.92223286628723,0
23.92223286628723,0
23.92223286628723,0
24.017123222351074,0
24.017123222351074,0
24.017123222351074,0
24.017123222351074,0
24.017123222351074,0
24.017123222351074,0
24.017123222351074,0
24.017123222351074,0
24.017123222351074,0
24.113422870635986,0
24.113422870635986,0
24.113422870635986,6
24.113422870635986,1
24.113422870635986,0
24.113422870635986,0
24.113422870635986,0
24.113422870635986,6
24.113422870635986,3
24.113422870635986,2
24.209617853164673,0
24.209617853164673,0
24.209617853164673,0
24.209617853164673,0
24.209617853164673,0
24.209617853164673,0
24.209617853164673,1
24.209617853164673,0
24.209617853164673,0
24.304306507110596,0
24.304306507110596,0
24.304306507110596,1
24.304306507110596,0
24.304306507110596,0
24.304306507110596,0
24.304306507110596,0
24.304306507110596,0
24.304306507110596,0
24.39939308166504,3
24.39939308166504,0
24.39939308166504,0
24.39939308166504,0
24.39939308166504,0
24.39939308166504,0
24.39939308166504,3
24.39939308166504,0
24.39939308166504,0
24.39939308166504,5
24.49855065345764,0
24.49855065345764,0
24.49855065345764,0
24.49855065345764,0
24.49855065345764,0
24.49855065345764,0
24.49855065345764,5
24.49855065345764,2
24.49855065345764,0
24.5904757976532,0
24.5904757976532,0
24.5904757976532,1
24.5904757976532,0
24.5904757976532,1
24.5904757976532,0
24.5904757976532,1
24.5904757976532,0
24.5904757976532,0
24.686211347579956,4
24.686211347579956,0
24.686211347579956,0
24.686211347579956,1
24.686211347579956,0
24.686211347579956,6
24.686211347579956,0
24.686211347579956,14
24.686211347579956,0
24.686211347579956,2
24.78763222694397,0
24.78763222694397,0
24.78763222694397,0
24.78763222694397,0
24.78763222694397,0
24.78763222694397,0
24.78763222694397,3
24.78763222694397,5
24.78763222694397,0
24.87638568878174,0
24.87638568878174,0
24.87638568878174,7
24.87638568878174,0
24.87638568878174,0
24.87638568878174,0
24.87638568878174,0
24.87638568878174,2
24.87638568878174,9
24.976534843444824,0
24.976534843444824,0
24.976534843444824,0
24.976534843444824,0
24.976534843444824,0
24.976534843444824,0
24.976534843444824,0
24.976534843444824,3
24.976534843444824,0
24.976534843444824,0
25.067646503448486,6
25.067646503448486,0
25.067646503448486,0
25.067646503448486,5
25.067646503448486,1
25.067646503448486,0
25.067646503448486,0
25.067646503448486,0
25.067646503448486,0
25.16327452659607,0
25.16327452659607,0
25.16327452659607,0
25.16327452659607,4
25.16327452659607,1
25.16327452659607,0
25.16327452659607,3
25.16327452659607,2
25.16327452659607,0
25.24295449256897,0
25.24295449256897,0
25.258681535720825,0
25.258681535720825,0
25.258681535720825,0
25.258681535720825,0
25.258681535720825,3
25.258681535720825,0
25.258681535720825,0
25.338579654693604,1
25.338579654693604,6
25.338579654693604,4
25.338579654693604,0
25.338579654693604,0
25.338579654693604,0
25.338579654693604,4
25.338579654693604,2
25.338579654693604,0
25.338579654693604,0
25.434550762176514,1
25.434550762176514,6
25.434550762176514,0
25.434550762176514,0
25.434550762176514,0
25.434550762176514,0
25.434550762176514,0
25.434550762176514,1
25.434550762176514,0
25.529784440994263,0
25.529784440994263,1
25.529784440994263,0
25.529784440994263,0
25.529784440994263,0
25.529784440994263,1
25.529784440994263,0
25.529784440994263,2
25.529784440994263,6
25.625070095062256,0
25.625070095062256,1
25.625070095062256,11
25.625070095062256,0
25.625070095062256,0
25.625070095062256,11
25.625070095062256,0
25.625070095062256,0
25.625070095062256,0
25.721312761306763,0
25.721312761306763,1
25.721312761306763,5
25.721312761306763,1
25.721312761306763,0
25.721312761306763,8
25.721312761306763,0
25.721312761306763,0
25.721312761306763,1
25.721312761306763,2
25.815661668777466,0
25.815661668777466,0
25.815661668777466,0
25.815661668777466,2
25.815661668777466,2
25.815661668777466,10
25.815661668777466,0
25.815661668777466,11
25.815661668777466,0
25.911675691604614,2
25.911675691604614,0
25.911675691604614,0
25.911675691604614,0
25.911675691604614,0
25.911675691604614,0
25.911675691604614,0
25.911675691604614,0
25.911675691604614,0
26.01162028312683,1
26.01162028312683,0
26.01162028312683,0
26.01162028312683,0
26.01162028312683,0
26.01162028312683,0
26.01162028312683,0
26.01162028312683,3
26.01162028312683,0
26.01162028312683,0
26.10866403579712,0
26.10866403579712,2
26.10866403579712,0
26.10866403579712,1
26.10866403579712,1
26.10866403579712,0
26.10866403579712,0
26.10866403579712,0
26.10866403579712,0
26.197434663772583,2
26.197434663772583,0
26.197434663772583,0
26.197434663772583,5
26.197434663772583,0
26.197434663772583,0
26.197434663772583,0
26.197434663772583,0
26.197434663772583,0
26.29311490058899,1
26.29311490058899,0
26.29311490058899,2
26.29311490058899,2
26.29311490058899,0
26.29311490058899,0
26.29311490058899,0
26.29311490058899,0
26.29311490058899,0
26.29311490058899,0
26.38809323310852,0
26.38809323310852,2
26.38809323310852,2
26.38809323310852,0
26.38809323310852,0
26.38809323310852,0
26.38809323310852,0
26.38809323310852,0
26.38809323310852,0
26.468204021453857,3
26.468204021453857,0
26.468204021453857,0
26.468204021453857,3
26.468204021453857,0
26.468204021453857,5
26.468204021453857,0
26.468204021453857,5
26.468204021453857,0
26.573058605194092,0
26.573058605194092,11
26.573058605194092,6
26.573058605194092,0
26.573058605194092,3
26.573058605194092,0
26.573058605194092,0
26.573058605194092,0
26.573058605194092,0
26.66791033744812,3
26.66791033744812,0
26.66791033744812,0
26.66791033744812,0
26.66791033744812,0
26.66791033744812,0
26.66791033744812,0
26.66791033744812,0
26.66791033744812,3
26.76696801185608,0
26.76696801185608,0
26.76696801185608,0
26.76696801185608,0
26.76696801185608,0
26.76696801185608,5
26.76696801185608,0
26.76696801185608,4
26.76696801185608,4
26.76696801185608,0
26.858577251434326,5
26.858577251434326,0
26.858577251434326,0
26.858577251434326,0
26.858577251434326,0
26.858577251434326,0
26.858577251434326,0
26.858577251434326,0
26.858577251434326,0
26.942813634872437,2
26.942813634872437,0
26.942813634872437,0
26.942813634872437,0
26.942813634872437,0
26.942813634872437,2
26.942813634872437,0
26.942813634872437,0
26.942813634872437,0
27.038453578948975,4
27.038453578948975,0
27.038453578948975,0
27.038453578948975,4
27.038453578948975,1
27.038453578948975,3
27.038453578948975,0
27.038453578948975,2
27.038453578948975,0
27.134177207946777,0
27.134177207946777,0
27.134177207946777,1
27.134177207946777,4
27.134177207946777,3
27.134177207946777,0
27.134177207946777,3
27.134177207946777,0
27.134177207946777,1
27.134177207946777,0
27.23017120361328,0
27.23017120361328,0
27.23017120361328,0
27.23017120361328,2
27.23017120361328,0
27.23017120361328,0
27.23017120361328,0
27.23017120361328,0
27.23017120361328,0
27.325372219085693,0
27.325372219085693,0
27.325372219085693,0
27.325372219085693,2
27.325372219085693,0
27.325372219085693,0
27.325372219085693,0
27.325372219085693,0
27.325372219085693,0
27.420840740203857,5
27.420840740203857,0
27.420840740203857,1
27.420840740203857,0
27.420840740203857,0
27.420840740203857,0
27.420840740203857,0
27.420840740203857,0
27.420840740203857,0
27.511306524276733,0
27.511306524276733,0
27.511306524276733,0
27.511306524276733,0
27.511306524276733,0
27.511306524276733,0
27.511306524276733,0
27.511306524276733,0
27.511306524276733,3
27.59670877456665,0
27.59670877456665,3
27.59670877456665,0
27.59670877456665,0
27.59670877456665,0
27.59670877456665,2
27.59670877456665,0
27.59670877456665,3
27.59670877456665,1
27.59670877456665,0
27.69218397140503,0
27.69218397140503,0
27.69218397140503,0
27.69218397140503,0
27.69218397140503,5
27.69218397140503,5
27.69218397140503,0
27.69218397140503,3
27.69218397140503,0
27.7886323928833,16
27.7886323928833,0
27.7886323928833,0
27.7886323928833,0
27.7886323928833,0
27.7886323928833,0
27.7886323928833,0
27.7886323928833,4
27.7886323928833,0
27.882524490356445,0
27.882524490356445,0
27.882524490356445,0
27.882524490356445,0
27.882524490356445,2
27.882524490356445,0
27.882524490356445,18
27.882524490356445,2
27.882524490356445,3
27.97791814804077,11
27.97791814804077,64
27.97791814804077,1
27.97791814804077,0
27.97791814804077,20
27.97791814804077,15
27.97791814804077,1
27.97791814804077,1
27.97791814804077,6
27.97791814804077,0
28.07360053062439,7
28.07360053062439,20
28.07360053062439,0
28.07360053062439,13
28.07360053062439,0
28.07360053062439,11
28.07360053062439,4
28.07360053062439,0
28.07360053062439,0
28.07360053062439,3
28.169846296310425,0
28.169846296310425,16
28.169846296310425,1
28.169846296310425,0
28.169846296310425,0
28.169846296310425,4
28.169846296310425,0
28.169846296310425,0
28.169846296310425,3
28.265006065368652,0
28.265006065368652,17
28.265006065368652,1
28.265006065368652,1
28.265006065368652,0
28.265006065368652,1
28.265006065368652,0
28.265006065368652,26
28.265006065368652,5
28.361314296722412,0
28.371493101119995,10
28.371493101119995,9
28.371493101119995,517
28.371493101119995,196
28.371493101119995,92
28.371493101119995,47
28.371493101119995,89
28.371493101119995,59
28.464667081832886,314
28.464667081832886,116
28.464667081832886,104
28.464667081832886,75
28.464667081832886,457
28.464667081832886,72
28.464667081832886,21
28.464667081832886,75
28.464667081832886,230
28.562506914138794,303
28.562506914138794,6
28.562506914138794,21
28.562506914138794,113
28.562506914138794,143
28.562506914138794,25
28.562506914138794,162
28.562506914138794,35
28.562506914138794,272
28.562506914138794,5
28.664278030395508,299
28.664278030395508,154
28.664278030395508,55
28.664278030395508,77
28.664278030395508,190
28.664278030395508,37
28.664278030395508,1
28.664278030395508,29
28.664278030395508,16
28.664278030395508,230
28.761678218841553,75
28.761678218841553,29
28.761678218841553,11
28.761678218841553,77
28.761678218841553,82
28.761678218841553,3
28.761678218841553,89
28.761678218841553,23
28.761678218841553,103
28.860939979553223,38
28.860939979553223,250
28.860939979553223,148
28.860939979553223,12
28.860939979553223,134
28.860939979553223,129
28.860939979553223,47
28.860939979553223,143
28.860939979553223,45
28.860939979553223,72
28.951114892959595,225
28.951114892959595,103
28.951114892959595,14
28.951114892959595,0
28.951114892959595,18
28.951114892959595,47
28.951114892959595,46
28.951114892959595,45
28.951114892959595,0
28.951114892959595,57
29.04661464691162,28
29.04661464691162,145
29.04661464691162,32
29.04661464691162,35
29.04661464691162,67
29.04661464691162,56
29.04661464691162,301
29.04661464691162,17
29.04661464691162,55
29.141729593276978,73
29.141729593276978,58
29.141729593276978,58
29.141729593276978,401
29.141729593276978,13
29.141729593276978,22
29.141729593276978,0
29.141729593276978,0
29.141729593276978,142
29.141729593276978,110
29.25082516670227,10
29.25082516670227,43
29.25082516670227,147
29.25082516670227,146
29.25082516670227,346
29.252830266952515,305
29.252830266952515,268
29.252830266952515,42
29.252830266952515,19
29.349729537963867,35
29.349729537963867,406
29.349729537963867,91
29.349729537963867,31
29.349729537963867,0
29.349729537963867,12
29.349729537963867,34
29.349729537963867,24
29.349729537963867,0
29.349729537963867,12
29.44375729560852,85
29.44375729560852,14
29.44375729560852,2
29.44375729560852,187
29.44375729560852,11
29.44375729560852,4
29.44375729560852,100
29.44375729560852,12
29.44375729560852,7
29.44375729560852,3
29.539260864257812,300
29.539260864257812,36
29.539260864257812,67
29.539260864257812,207
29.539260864257812,122
29.539260864257812,276
29.539260864257812,10
29.539260864257812,262
29.539260864257812,35
29.63562035560608,721
29.63562035560608,369
29.63562035560608,170
29.63562035560608,29
29.63562035560608,51
29.63562035560608,10
29.63562035560608,26
29.63562035560608,3
29.63562035560608,251
29.63562035560608,6
29.730807304382324,114
29.730807304382324,105
29.730807304382324,159
29.730807304382324,387
29.730807304382324,4
29.730807304382324,16
29.730807304382324,216
29.730807304382324,14
29.730807304382324,240
29.826019525527954,43
29.841585636138916,192
29.841585636138916,19
29.841585636138916,161
29.841585636138916,38
29.841585636138916,31
29.841585636138916,74
29.841585636138916,168
29.841585636138916,37
29.841585636138916,19
29.936740159988403,151
29.936740159988403,38
29.936740159988403,196
29.936740159988403,350
29.936740159988403,1
29.936740159988403,48
29.936740159988403,94
29.936740159988403,52
29.936740159988403,38
30.03996253013611,121
30.03996253013611,131
30.03996253013611,7
30.03996253013611,22
30.03996253013611,121
30.03996253013611,217
30.03996253013611,41
30.03996253013611,5
30.03996253013611,283
30.03996253013611,631
30.03996253013611,33
30.128313302993774,17
30.128313302993774,358
30.128313302993774,44
30.128313302993774,5
30.128313302993774,81
30.128313302993774,0
30.128313302993774,12
30.128313302993774,43
30.128313302993774,37
30.239428997039795,198
30.239428997039795,9
30.239428997039795,219
30.239428997039795,42
30.239428997039795,31
30.239428997039795,120
30.239428997039795,49
30.239428997039795,3
30.239428997039795,174
30.239428997039795,0
30.239428997039795,6
30.335216999053955,12
30.335216999053955,114
30.335216999053955,25
30.335216999053955,8
30.335216999053955,8
30.335216999053955,38
30.335216999053955,128
30.335216999053955,61
30.335216999053955,63
30.335216999053955,5
30.44619107246399,54
30.44619107246399,113
30.44619107246399,1
30.44619107246399,78
30.44619107246399,176
30.44619107246399,193
30.44619107246399,54
30.44619107246399,34
30.44619107246399,67
30.44619107246399,34
30.546189546585083,20
30.546189546585083,129
30.546189546585083,39
30.546189546585083,98
30.546189546585083,78
30.546189546585083,0
30.546189546585083,28
30.546189546585083,89
30.546189546585083,21
30.63673210144043,41
30.63673210144043,13
30.63673210144043,21
30.63673210144043,33
30.63673210144043,84
30.63673210144043,0
30.63673210144043,35
30.63673210144043,32
30.63673210144043,314
30.732353687286377,106
30.732353687286377,31
30.732353687286377,24
30.732353687286377,60
30.732353687286377,114
30.732353687286377,315
30.732353687286377,13
30.732353687286377,0
30.732353687286377,0
30.732353687286377,41
30.82799482345581,326
30.82799482345581,54
30.82799482345581,29
30.82799482345581,91
30.82799482345581,92
30.82799482345581,79
30.82799482345581,21
30.82799482345581,17
30.82799482345581,102
30.82799482345581,36
30.924787998199463,63
30.924787998199463,135
30.924787998199463,183
30.924787998199463,108
30.924787998199463,49
30.924787998199463,14
30.924787998199463,8
30.924787998199463,94
30.924787998199463,42
31.027275800704956,15
31.027275800704956,5
31.027275800704956,10
31.027275800704956,119
31.027275800704956,0
31.027275800704956,125
31.027275800704956,7
31.027275800704956,65
31.027275800704956,198
31.113948345184326,11
31.113948345184326,93
31.113948345184326,222
31.113948345184326,19
31.113948345184326,85
31.113948345184326,11
31.113948345184326,39
31.113948345184326,12
31.113948345184326,30
31.210773468017578,111
31.210773468017578,111
31.210773468017578,40
31.210773468017578,263
31.210773468017578,73
31.210773468017578,4
31.210773468017578,34
31.210773468017578,145
31.210773468017578,0
31.210773468017578,37
31.304941177368164,126
31.304941177368164,477
31.304941177368164,15
31.304941177368164,14
31.304941177368164,45
31.304941177368164,14
31.304941177368164,219
31.304941177368164,40
31.304941177368164,13
31.400841236114502,10
31.400841236114502,68
31.400841236114502,60
31.400841236114502,52
31.400841236114502,0
31.400841236114502,0
31.400841236114502,15
31.400841236114502,145
31.400841236114502,91
31.495256423950195,172
31.495256423950195,8
31.495256423950195,152
31.495256423950195,151
31.495256423950195,0
31.495256423950195,36
31.495256423950195,2
31.495256423950195,74
31.495256423950195,6
31.495256423950195,195
31.607507944107056,5
31.607507944107056,7
31.607507944107056,149
31.607507944107056,124
31.607507944107056,128
31.607507944107056,9
31.607507944107056,21
31.607507944107056,31
31.607507944107056,69
31.607507944107056,3
31.701722621917725,79
31.701722621917725,11
31.701722621917725,34
31.701722621917725,12
31.701722621917725,11
31.701722621917725,94
31.701722621917725,38
31.701722621917725,78
31.701722621917725,72
31.701722621917725,22
31.81309723854065,100
31.81309723854065,68
31.81309723854065,0
31.81309723854065,12
31.81309723854065,0
31.81309723854065,2
31.81309723854065,21
31.81309723854065,57
31.81309723854065,0
31.81309723854065,42
31.912487268447876,8
31.912487268447876,2
31.914494276046753,31
31.914494276046753,33
31.914494276046753,132
31.914494276046753,11
31.914494276046753,0
31.914494276046753,4
31.914494276046753,21
31.914494276046753,116
32.00511646270752,127
32.00511646270752,6
32.00511646270752,0
32.01527690887451,9
32.01527690887451,0
32.01527690887451,0
32.01527690887451,1
32.01527690887451,5
32.01527690887451,5
32.01527690887451,2
32.10959076881409,1
32.10959076881409,22
32.10959076881409,6
32.10959076881409,17
32.10959076881409,102
32.10959076881409,68
32.10959076881409,13
32.10959076881409,26
32.10959076881409,0
32.10959076881409,0
32.21323013305664,3
32.21323013305664,1
32.21323013305664,4
32.21323013305664,0
32.21323013305664,2
32.21323013305664,0
32.21323013305664,0
32.21323013305664,4
32.21323013305664,0
32.306084632873535,2
32.306084632873535,0
32.306084632873535,0
32.306084632873535,1
32.306084632873535,0
32.306084632873535,2
32.306084632873535,0
32.306084632873535,0
32.306084632873535,8
32.306084632873535,6
32.4120659828186,0
32.4120659828186,1
32.4120659828186,0
32.4120659828186,2
32.4120659828186,0
32.4120659828186,0
32.4120659828186,0
32.4120659828186,0
32.4120659828186,0
32.4120659828186,0
32.51217865943909,0
32.51217865943909,5
32.51217865943909,4
32.51217865943909,0
32.51217865943909,0
32.51217865943909,1
32.51217865943909,1
32.51217865943909,0
32.51217865943909,1
32.51217865943909,4
32.60829210281372,0
32.60829210281372,0
32.60829210281372,0
32.60829210281372,0
32.60829210281372,0
32.60829210281372,0
32.60829210281372,0
32.60829210281372,0
32.60829210281372,0
32.60829210281372,0
32.712682247161865,0
32.712682247161865,0
32.712682247161865,0
32.712682247161865,0
32.712682247161865,4
32.712682247161865,0
32.712682247161865,13
32.712682247161865,2
32.712682247161865,0
32.712682247161865,0
32.809305906295776,0
32.809305906295776,0
32.809305906295776,0
32.809305906295776,7
32.809305906295776,30
32.809305906295776,137
32.809305906295776,1
32.809305906295776,4
32.809305906295776,0
32.91061091423035,109
32.91061091423035,46
32.91061091423035,4
32.91061091423035,8
32.91061091423035,3
32.91061091423035,33
32.91061091423035,40
32.91061091423035,91
32.91061091423035,81
32.91061091423035,0
33.01785492897034,40
33.01785492897034,5
33.01785492897034,6
33.01785492897034,9
33.01785492897034,233
33.01785492897034,22
33.01785492897034,7
33.01785492897034,2
33.01785492897034,1
33.01785492897034,0
33.1174840927124,0
33.1174840927124,0
33.1174840927124,4
33.1174840927124,4
33.1174840927124,5
33.1174840927124,0
33.1174840927124,0
33.1174840927124,0
33.1174840927124,0
33.1174840927124,0
33.1174840927124,0
33.222734212875366,0
33.222734212875366,17
33.222734212875366,0
33.222734212875366,0
33.222734212875366,26
33.222734212875366,8
33.222734212875366,0
33.222734212875366,3
33.222734212875366,0
33.222734212875366,0
33.32354712486267,1
33.32354712486267,0
33.32354712486267,0
33.32354712486267,0
33.32354712486267,0
33.32354712486267,1
33.32354712486267,1
33.32354712486267,0
33.32354712486267,0
33.32354712486267,0
33.42774701118469,0
33.42774701118469,0
33.42774701118469,0
33.42774701118469,0
33.42774701118469,0
33.42774701118469,0
33.42774701118469,0
33.42774701118469,0
33.42774701118469,0
33.42774701118469,0
33.51488208770752,1
33.51488208770752,0
33.51488208770752,4
33.51488208770752,0
33.51488208770752,5
33.51488208770752,0
33.51488208770752,0
33.51488208770752,0
33.51488208770752,0
33.610912799835205,4
33.610912799835205,0
33.610912799835205,0
33.610912799835205,0
33.610912799835205,0
33.610912799835205,0
33.610912799835205,0
33.610912799835205,0
33.610912799835205,0
33.71034836769104,0
33.71034836769104,0
33.71034836769104,1
33.71034836769104,1
33.71034836769104,0
33.71034836769104,0
33.71034836769104,0
33.71034836769104,0
33.71034836769104,0
33.71034836769104,0
33.80180835723877,0
33.80180835723877,2
33.80180835723877,0
33.80180835723877,0
33.80180835723877,0
33.80180835723877,0
33.80180835723877,0
33.80180835723877,6
33.80180835723877,0
33.89691925048828,0
33.89691925048828,0
33.89691925048828,0
33.89691925048828,0
33.89691925048828,0
33.89691925048828,3
33.89691925048828,1
33.89691925048828,0
33.89691925048828,0
33.99258804321289,1
33.99258804321289,0
33.99258804321289,0
33.99258804321289,0
33.99258804321289,1
33.99258804321289,0
33.99258804321289,3
33.99258804321289,0
33.99258804321289,1
34.07251524925232,0
34.07251524925232,0
34.07251524925232,0
34.07251524925232,4
34.07251524925232,0
34.07251524925232,3
34.07251524925232,0
34.07251524925232,10
34.07251524925232,5
34.16810178756714,9
34.16810178756714,2
34.16810178756714,12
34.16810178756714,6
34.16810178756714,0
34.16810178756714,0
34.16810178756714,3
34.16810178756714,0
34.16810178756714,7
34.16810178756714,0
34.27387285232544,0
34.27387285232544,0
34.27387285232544,0
34.27387285232544,1
34.27387285232544,1
34.27387285232544,0
34.27387285232544,0
34.27387285232544,2
34.27387285232544,0
34.36034536361694,2
34.36034536361694,2
34.36034536361694,0
34.36034536361694,0
34.36034536361694,1
34.36034536361694,7
34.36034536361694,6
34.36034536361694,2
34.36034536361694,0
34.466479539871216,3
34.466479539871216,1
34.466479539871216,1
34.466479539871216,6
34.466479539871216,0
34.466479539871216,0
34.4684841632843,0
34.4684841632843,1
34.4684841632843,1
34.4684841632843,9
34.56519031524658,0
34.56519031524658,0
34.56519031524658,0
34.56519031524658,0
34.56519031524658,1
34.56519031524658,0
34.56519031524658,0
34.56519031524658,5
34.56519031524658,3
34.56519031524658,8
34.66136860847473,0
34.66136860847473,6
34.66136860847473,14
34.66136860847473,10
34.66136860847473,5
34.66136860847473,5
34.66136860847473,0
34.66136860847473,2
34.66136860847473,0
34.75655961036682,0
34.75655961036682,6
34.75655961036682,14
34.75655961036682,0
34.75655961036682,4
34.75655961036682,0
34.75655961036682,7
34.758564710617065,0
34.758564710617065,3
34.758564710617065,0
34.855974435806274,0
34.855974435806274,0
34.855974435806274,15
34.855974435806274,23
34.855974435806274,9
34.855974435806274,0
34.855974435806274,17
34.855974435806274,1
34.855974435806274,11
34.94713091850281,0
34.94713091850281,0
34.94713091850281,0
34.94713091850281,0
34.94713091850281,0
34.94713091850281,0
34.94713091850281,0
34.94713091850281,0
34.94713091850281,2
34.94713091850281,0
35.057875871658325,0
35.057875871658325,0
35.057875871658325,0
35.057875871658325,2
35.057875871658325,0
35.057875871658325,0
35.057875871658325,1
35.057875871658325,8
35.057875871658325,0
35.057875871658325,0
35.153271198272705,0
35.153271198272705,15
35.153271198272705,1
35.153271198272705,0
35.153271198272705,0
35.153271198272705,2
35.153271198272705,5
35.153271198272705,7
35.153271198272705,7
35.153271198272705,9
35.25784730911255,17
35.25784730911255,8
35.25784730911255,17
35.25784730911255,5
35.25784730911255,6
35.25784730911255,0
35.25784730911255,184
35.25784730911255,0
35.25784730911255,12
35.25784730911255,4
35.359747886657715,18
35.359747886657715,0
35.359747886657715,3
35.359747886657715,0
35.359747886657715,7
35.359747886657715,0
35.3609938621521,0
35.3609938621521,0
35.3609938621521,0
35.3609938621521,0
35.45375680923462,0
35.45375680923462,1
35.45375680923462,0
35.45375680923462,0
35.45375680923462,5
35.45375680923462,3
35.45375680923462,0
35.45375680923462,6
35.45375680923462,0
35.534411907196045,0
35.534411907196045,0
35.534411907196045,0
35.534411907196045,2
35.55014753341675,0
35.55014753341675,0
35.55014753341675,0
35.55014753341675,0
35.55014753341675,0
35.629937410354614,0
35.629937410354614,0
35.629937410354614,0
35.629937410354614,3
35.629937410354614,0
35.629937410354614,3
35.629937410354614,2
35.629937410354614,0
35.629937410354614,7
35.629937410354614,0
35.74099040031433,22
35.74099040031433,4
35.74099040031433,0
35.74099040031433,14
35.74099040031433,11
35.74099040031433,10
35.74099040031433,0
35.74186992645264,11
35.74186992645264,3
35.83526539802551,10
35.83526539802551,7
35.83526539802551,6
35.83701157569885,0
35.83701157569885,0
35.83701157569885,1
35.83701157569885,9
35.83701157569885,6
35.83701157569885,14
35.83701157569885,1
35.93212127685547,5
35.93212127685547,0
35.93212127685547,3
35.93212127685547,9
35.93212127685547,0
35.93212127685547,0
35.93212127685547,0
35.93212127685547,0
35.93212127685547,0
36.027997732162476,0
36.027997732162476,0
36.027997732162476,1
36.027997732162476,0
36.027997732162476,1
36.027997732162476,0
36.030003786087036,0
36.030003786087036,0
36.030003786087036,1
36.12392282485962,4
36.12392282485962,4
36.12392282485962,0
36.12392282485962,0
36.12392282485962,0
36.12392282485962,1
36.12392282485962,0
36.12392282485962,7
36.12392282485962,0
36.12392282485962,0
36.21436905860901,0
36.21436905860901,0
36.21436905860901,0
36.21436905860901,6
36.21436905860901,0
36.21436905860901,3
36.21436905860901,0
36.21436905860901,1
36.21436905860901,1
36.309165954589844,3
36.309165954589844,0
36.309165954589844,0
36.309165954589844,0
36.309165954589844,6
36.309165954589844,6
36.309165954589844,1
36.309165954589844,12
36.309165954589844,11
36.39452838897705,10
36.39452838897705,10
36.39452838897705,1
36.39452838897705,1
36.39452838897705,1
36.39452838897705,0
36.39452838897705,4
36.39452838897705,1
36.39452838897705,0
36.39452838897705,0
36.506428956985474,0
36.506428956985474,5
36.506428956985474,0
36.506428956985474,7
36.506428956985474,0
36.506428956985474,0
36.506428956985474,6
36.506428956985474,0
36.506428956985474,4
36.506428956985474,0
36.60658264160156,0
36.60658264160156,0
36.60658264160156,9
36.60658264160156,0
36.60658264160156,0
36.60658264160156,0
36.60658264160156,2
36.60658264160156,0
36.60658264160156,0
36.703073501586914,0
36.703073501586914,4
36.705079317092896,0
36.705079317092896,0
36.705079317092896,0
36.705079317092896,6
36.705079317092896,0
36.705079317092896,0
36.705079317092896,0
36.705079317092896,0
36.79028034210205,0
36.79028034210205,0
36.79028034210205,0
36.79028034210205,8
36.79028034210205,0
36.79028034210205,7
36.79028034210205,4
36.79028034210205,0
36.79028034210205,0
36.79028034210205,0
36.88579249382019,0
36.88579249382019,7
36.88579249382019,0
36.88579249382019,12
36.88579249382019,2
36.88579249382019,3
36.88579249382019,1
36.88579249382019,9
36.88579249382019,3
36.981484174728394,10
36.981484174728394,0
36.981484174728394,4
36.981484174728394,1
36.981484174728394,0
36.981484174728394,5
36.981484174728394,0
36.981484174728394,3
36.981484174728394,21
37.077107667922974,0
37.077107667922974,0
37.077107667922974,0
37.077107667922974,6
37.077107667922974,0
37.077107667922974,0
37.077107667922974,2
37.077107667922974,0
37.077107667922974,4
37.077107667922974,0
37.171875953674316,5
37.171875953674316,0
37.171875953674316,0
37.171875953674316,0
37.171875953674316,4
37.171875953674316,0
37.171875953674316,0
37.171875953674316,7
37.171875953674316,2
37.273720026016235,0
37.273720026016235,1
37.273720026016235,0
37.273720026016235,3
37.273720026016235,0
37.273720026016235,5
37.273720026016235,0
37.273720026016235,4
37.273720026016235,0
37.36257362365723,0
37.36257362365723,1
37.36257362365723,0
37.36257362365723,0
37.36257362365723,0
37.36257362365723,0
37.36257362365723,2
37.36257362365723,0
37.36257362365723,2
37.46104860305786,0
37.46104860305786,0
37.46104860305786,0
37.46104860305786,0
37.46104860305786,2
37.46104860305786,0
37.46104860305786,6
37.46104860305786,8
37.46104860305786,0
37.556710720062256,14
37.556710720062256,7
37.556710720062256,10
37.556710720062256,0
37.556710720062256,4
37.556710720062256,1
37.556710720062256,0
37.556710720062256,0
37.556710720062256,3
37.556710720062256,4
37.65053844451904,0
37.65053844451904,6
37.65053844451904,7
37.65053844451904,0
37.65053844451904,2
37.65053844451904,0
37.65053844451904,5
37.65053844451904,0
37.65053844451904,0
37.74694108963013,0
37.74694108963013,3
37.74694108963013,6
37.74694108963013,0
37.74694108963013,12
37.74694108963013,1
37.74694108963013,5
37.74694108963013,0
37.74694108963013,5
37.843464851379395,0
37.843464851379395,2
37.843464851379395,1
37.843464851379395,7
37.843464851379395,2
37.843464851379395,9
37.843464851379395,0
37.843464851379395,1
37.843464851379395,2
37.843464851379395,2
37.93397331237793,0
37.93397331237793,0
37.93397331237793,0
37.93397331237793,1
37.93397331237793,0
37.93397331237793,5
37.93397331237793,0
37.93397331237793,2
37.93397331237793,0
38.02927851676941,0
38.02927851676941,3
38.02927851676941,6
38.02927851676941,0
38.02927851676941,0
38.02927851676941,1
38.02927851676941,0
38.02927851676941,0
38.02927851676941,6
38.02927851676941,0
38.1261031627655,27
38.1261031627655,23
38.1261031627655,17
38.1261031627655,16
38.1261031627655,17
38.12810826301575,1
38.12810826301575,4
38.12810826301575,0
38.12810826301575,0
38.22152042388916,0
38.22152042388916,32
38.22152042388916,5
38.22152042388916,26
38.22152042388916,5
38.22152042388916,27
38.22152042388916,49
38.22152042388916,28
38.22152042388916,7
38.31454873085022,0
38.31454873085022,0
38.31454873085022,7
38.31454873085022,0
38.31454873085022,42
38.31454873085022,0
38.31454873085022,7
38.31454873085022,2
38.31454873085022,1
38.408071756362915,5
38.408071756362915,0
38.408071756362915,32
38.408071756362915,0
38.40981936454773,0
38.40981936454773,2
38.40981936454773,0
38.40981936454773,0
38.40981936454773,2
38.50221300125122,4
38.50221300125122,0
38.50221300125122,7
38.50221300125122,0
38.50221300125122,0
38.50221300125122,0
38.50221300125122,0
38.50221300125122,9
38.50221300125122,0
38.50221300125122,1
38.59620785713196,0
38.59620785713196,16
38.59620785713196,0
38.59620785713196,139
38.59821271896362,129
38.59821271896362,0
38.59821271896362,0
38.59821271896362,9
38.59821271896362,16
38.68269062042236,18
38.68269062042236,293
38.68269062042236,6
38.68269062042236,194
38.68269062042236,184
38.68269062042236,147
38.68269062042236,83
38.68269062042236,452
38.68269062042236,3
38.79539370536804,13
38.79539370536804,52
38.79539370536804,76
38.79539370536804,66
38.79539370536804,256
38.79539370536804,532
38.79539370536804,249
38.79539370536804,328
38.79539370536804,34
38.79539370536804,34
38.884148836135864,307
38.884148836135864,9
38.884148836135864,130
38.884148836135864,7
38.884148836135864,4
38.884148836135864,39
38.884148836135864,31
38.884148836135864,20
38.884148836135864,26
38.884148836135864,180
39.00054574012756,156
39.00054574012756,48
39.00054574012756,36
39.00054574012756,322
39.00054574012756,101
39.00054574012756,457
39.00054574012756,147
39.00054574012756,8
39.00054574012756,31
39.00054574012756,8
39.09022521972656,224
39.09022521972656,6
39.09022521972656,163
39.09022521972656,40
39.09022521972656,235
39.09022521972656,51
39.09022521972656,214
39.09022521972656,71
39.09022521972656,23
39.09022521972656,12
39.20501351356506,63
39.20501351356506,76
39.20501351356506,11
39.20501351356506,25
39.20501351356506,7
39.20501351356506,86
39.20702028274536,42
39.20702028274536,30
39.20702028274536,52
39.20702028274536,88
39.29708814620972,0
39.29708814620972,241
39.29708814620972,43
39.29708814620972,146
39.29708814620972,229
39.29708814620972,2
39.29708814620972,36
39.29708814620972,55
39.29708814620972,132
39.29708814620972,142
39.3916711807251,3
39.3916711807251,5
39.3916711807251,86
39.3916711807251,97
39.3916711807251,56
39.3916711807251,58
39.3916711807251,114
39.3916711807251,7
39.3916711807251,10
39.49510717391968,81
39.49510717391968,165
39.49510717391968,23
39.49510717391968,125
39.49510717391968,285
39.49510717391968,32
39.49510717391968,52
39.49510717391968,207
39.49510717391968,71
39.49510717391968,0
39.59309363365173,20
39.59309363365173,66
39.59309363365173,44
39.59309363365173,222
39.59309363365173,45
39.59309363365173,38
39.59309363365173,55
39.59309363365173,184
39.59309363365173,32
39.69167399406433,58
39.69167399406433,14
39.69167399406433,7
39.69167399406433,90
39.69167399406433,35
39.69167399406433,55
39.69167399406433,54
39.69167399406433,0
39.69167399406433,2
39.69167399406433,45
39.79411959648132,174
39.79411959648132,27
39.79411959648132,33
39.79411959648132,48
39.79411959648132,24
39.79411959648132,143
39.79411959648132,236
39.79411959648132,87
39.79411959648132,33
39.79411959648132,146
39.88415312767029,77
39.88415312767029,16
39.88415312767029,14
39.88415312767029,25
39.88415312767029,177
39.88415312767029,311
39.88415312767029,104
39.88415312767029,21
39.88415312767029,78
39.88415312767029,5
39.99309802055359,126
39.99309802055359,187
39.99309802055359,34
39.994603395462036,130
39.994603395462036,52
39.994603395462036,8
39.994603395462036,13
39.994603395462036,198
39.994603395462036,364
40.09064531326294,104
40.09064531326294,62
40.09064531326294,100
40.09064531326294,448
40.09064531326294,164
40.09064531326294,319
40.09064531326294,355
40.09064531326294,14
40.09064531326294,0
40.09064531326294,15
40.19231057167053,37
40.19231057167053,171
40.19231057167053,150
40.19231057167053,107
40.19231057167053,547
40.19231057167053,147
40.19231057167053,102
40.19231057167053,151
40.19231057167053,85
40.19231057167053,109
40.283713579177856,151
40.283713579177856,3
40.283713579177856,211
40.283713579177856,33
40.283713579177856,12
40.283713579177856,101
40.283713579177856,12
40.283713579177856,206
40.283713579177856,97
40.283713579177856,25
40.37669515609741,0
40.37669515609741,44
40.37669515609741,52
40.37669515609741,367
40.37669515609741,55
40.39256191253662,163
40.39256191253662,85
40.39256191253662,39
40.39256191253662,275
40.48803949356079,9
40.48803949356079,23
40.48803949356079,40
40.48803949356079,11
40.48803949356079,19
40.48803949356079,205
40.48803949356079,24
40.48803949356079,345
40.48803949356079,69
40.48803949356079,206
40.58360052108765,128
40.58360052108765,23
40.58360052108765,140
40.58360052108765,87
40.58360052108765,351
40.58360052108765,82
40.58360052108765,137
40.58360052108765,31
40.58360052108765,145
40.58360052108765,53
40.692097425460815,373
40.692097425460815,37
40.692097425460815,221
40.692097425460815,13
40.692097425460815,97
40.692097425460815,7
40.692097425460815,0
40.692097425460815,343
40.692097425460815,22
40.692097425460815,80
40.79039764404297,93
40.79039764404297,0
40.79039764404297,67
40.79039764404297,0
40.79039764404297,124
40.79039764404297,12
40.79039764404297,35
40.79039764404297,158
40.79039764404297,373
40.79039764404297,93
40.88605284690857,35
40.88605284690857,186
40.88605284690857,186
40.88605284690857,170
40.88605284690857,58
40.88605284690857,40
40.88605284690857,68
40.88605284690857,288
40.88605284690857,39
40.98115086555481,182
40.98115086555481,34
40.98115086555481,309
40.98115086555481,100
40.98115086555481,195
40.98115086555481,26
40.98115086555481,23
40.98115086555481,96
40.98115086555481,55
40.98115086555481,0
41.09612274169922,12
41.09612274169922,99
41.09612274169922,145
41.09612274169922,430
41.09612274169922,261
41.09612274169922,117
41.09612274169922,11
41.09612274169922,26
41.09612274169922,61
41.09612274169922,95
41.18859910964966,41
41.18859910964966,2
41.18859910964966,203
41.18859910964966,120
41.18859910964966,113
41.18859910964966,154
41.18859910964966,10
41.18859910964966,0
41.18859910964966,146
41.18859910964966,208
41.28926181793213,165
41.28926181793213,173
41.28926181793213,170
41.28926181793213,75
41.28926181793213,97
41.28926181793213,223
41.28926181793213,45
41.28926181793213,247
41.28926181793213,39
41.37922930717468,0
41.37922930717468,65
41.37922930717468,217
41.37922930717468,67
41.37922930717468,0
41.37922930717468,153
41.37922930717468,101
41.37922930717468,4
41.37922930717468,116
41.47539186477661,199
41.47539186477661,97
41.47539186477661,34
41.47539186477661,4
41.47539186477661,114
41.47539186477661,13
41.47539186477661,3
41.47539186477661,123
41.47539186477661,299
41.56571316719055,178
41.56571316719055,1
41.56571316719055,3
41.56571316719055,27
41.56571316719055,1
41.56571316719055,51
41.56571316719055,7
41.56571316719055,73
41.56571316719055,93
41.66056418418884,12
41.66056418418884,0
41.66056418418884,0
41.66056418418884,2
41.66056418418884,2
41.66056418418884,0
41.66056418418884,10
41.66056418418884,204
41.66056418418884,121
41.74682688713074,123
41.74682688713074,113
41.74682688713074,11
41.74682688713074,8
41.74682688713074,1
41.74682688713074,0
41.74682688713074,0
41.74682688713074,0
41.74682688713074,0
41.74682688713074,21
41.84438610076904,16
41.84438610076904,54
41.84438610076904,3
41.84438610076904,18
41.84438610076904,29
41.84438610076904,247
41.84438610076904,9
41.84438610076904,6
41.84438610076904,3
41.84438610076904,7
41.93777561187744,49
41.93777561187744,1
41.93777561187744,0
41.93777561187744,3
41.93777561187744,186
41.93777561187744,11
41.93777561187744,1
41.93777561187744,0
41.93777561187744,84
42.033138275146484,51
42.033138275146484,68
42.033138275146484,3
42.033138275146484,7
42.033138275146484,0
42.033138275146484,29
42.033138275146484,1
42.033138275146484,0
42.033138275146484,12
42.1285343170166,6
42.1285343170166,62
42.1285343170166,35
42.1285343170166,0
42.1285343170166,141
42.1285343170166,209
42.1285343170166,0
42.1285343170166,1
42.1285343170166,0
42.1285343170166,0
42.23973894119263,0
42.23973894119263,0
42.23973894119263,0
42.23973894119263,0
42.23973894119263,0
42.23973894119263,0
42.23973894119263,0
42.23973894119263,0
42.23973894119263,0
42.23973894119263,0
42.34554076194763,1
42.34554076194763,0
42.34554076194763,0
42.34554076194763,3
42.34554076194763,0
42.34554076194763,5
42.34554076194763,0
42.34554076194763,1
42.34554076194763,0
42.34554076194763,0
42.44780874252319,44
42.44780874252319,6
42.44780874252319,0
42.44780874252319,16
42.44780874252319,0
42.44780874252319,2
42.44780874252319,0
42.44780874252319,4
42.44780874252319,10
42.44780874252319,3
42.551334857940674,0
42.551334857940674,0
42.551334857940674,1
42.551334857940674,0
42.551334857940674,0
42.551334857940674,0
42.551334857940674,0
42.551334857940674,0
42.551334857940674,8
42.551334857940674,0
42.653486490249634,0
42.653486490249634,0
42.653486490249634,0
42.653486490249634,0
42.653486490249634,2
42.653486490249634,1
42.653486490249634,5
42.653486490249634,1
42.653486490249634,1
42.653486490249634,0
42.748483180999756,0
42.748483180999756,4
42.748483180999756,1
42.748483180999756,4
42.748483180999756,0
42.748483180999756,1
42.748483180999756,0
42.748483180999756,0
42.748483180999756,9
42.748483180999756,0
42.84559106826782,2
42.84559106826782,1
42.84559106826782,0
42.84559106826782,4
42.84559106826782,17
42.84559106826782,0
42.84559106826782,0
42.84559106826782,0
42.84559106826782,10
42.93914341926575,0
42.93914341926575,1
42.93914341926575,1
42.93914341926575,7
42.93914341926575,52
42.93914341926575,8
42.93914341926575,1
42.93914341926575,9
42.93914341926575,5
43.03667616844177,31
43.03667616844177,33
43.03667616844177,16
43.03667616844177,0
43.03667616844177,2
43.03667616844177,108
43.03667616844177,173
43.03667616844177,22
43.03667616844177,6
43.03667616844177,12
43.130149602890015,0
43.130149602890015,6
43.130149602890015,2
43.130149602890015,13
43.130149602890015,0
43.130149602890015,16
43.130149602890015,0
43.130149602890015,5
43.130149602890015,0
43.23100161552429,0
43.23100161552429,0
43.233006954193115,8
43.233006954193115,0
43.233006954193115,2
43.233006954193115,0
43.233006954193115,0
43.233006954193115,5
43.233006954193115,2
43.233006954193115,0
43.33195114135742,2
43.33195114135742,1
43.33195114135742,0
43.33195114135742,0
43.33195114135742,0
43.33195114135742,0
43.33195114135742,0
43.33195114135742,0
43.33195114135742,0
43.33195114135742,0
43.43318796157837,4
43.43318796157837,0
43.43318796157837,0
43.43318796157837,0
43.43318796157837,8
43.43318796157837,8
43.43318796157837,16
43.43318796157837,6
43.43318796157837,8
43.43318796157837,4
43.52650475502014,6
43.52650475502014,0
43.52650475502014,20
43.52650475502014,0
43.52650475502014,0
43.52650475502014,1
43.52650475502014,2
43.52650475502014,2
43.52650475502014,7
43.633610010147095,1
43.633610010147095,2
43.633610010147095,0
43.633610010147095,6
43.633610010147095,1
43.633610010147095,8
43.633610010147095,0
43.633610010147095,0
43.633610010147095,0
43.633610010147095,0
43.73197555541992,3
43.73197555541992,1
43.73197555541992,3
43.73197555541992,0
43.73197555541992,11
43.73197555541992,0
43.73197555541992,2
43.73197555541992,0
43.73197555541992,1
43.73197555541992,0
43.83132863044739,0
43.83132863044739,0
43.83132863044739,0
43.83132863044739,0
43.83132863044739,1
43.83132863044739,0
43.83132863044739,0
43.83132863044739,0
43.83132863044739,1
43.83132863044739,0
43.92276740074158,0
43.92276740074158,0
43.92276740074158,0
43.92276740074158,0
43.92276740074158,1
43.92276740074158,0
43.92276740074158,0
43.92276740074158,0
43.92276740074158,0
44.022157192230225,2
44.022157192230225,0
44.022157192230225,0
44.022157192230225,0
44.022157192230225,2
44.022157192230225,9
44.022157192230225,8
44.0241641998291,12
44.0241641998291,6
44.12009000778198,11
44.12009000778198,12
44.12009000778198,12
44.12009000778198,3
44.12009000778198,2
44.12009000778198,6
44.12009000778198,5
44.12009000778198,0
44.12009000778198,0
44.12009000778198,4
44.21510934829712,7
44.21510934829712,0
44.21510934829712,4
44.21510934829712,0
44.21510934829712,0
44.21510934829712,0
44.21510934829712,0
44.21510934829712,0
44.21510934829712,0
44.30753183364868,5
44.30753183364868,0
44.30753183364868,0
44.30753183364868,2
44.30753183364868,2
44.30753183364868,6
44.30753183364868,10
44.30753183364868,0
44.30753183364868,0
44.30753183364868,0
44.39896035194397,61
44.39896035194397,0
44.39896035194397,3
44.39896035194397,0
44.39896035194397,1
44.39896035194397,0
44.39896035194397,5
44.39896035194397,0
44.39896035194397,4
44.49282884597778,0
44.49282884597778,0
44.49282884597778,0
44.49282884597778,0
44.49282884597778,3
44.49282884597778,0
44.49282884597778,2
44.49282884597778,5
44.49282884597778,0
44.58796286582947,39
44.58796286582947,37
44.58796286582947,4
44.58796286582947,0
44.58796286582947,5
44.58796286582947,6
44.58796286582947,13
44.58796286582947,12
44.58796286582947,7
44.68337273597717,0
44.68337273597717,14
44.68337273597717,4
44.68337273597717,7
44.68337273597717,17
44.68337273597717,5
44.68337273597717,81
44.68337273597717,2
44.68337273597717,32
44.77899193763733,48
44.77899193763733,0
44.77899193763733,9
44.77899193763733,3
44.77899193763733,2
44.77899193763733,1
44.77899193763733,0
44.77899193763733,0
44.77899193763733,0
44.77899193763733,5
44.87421488761902,0
44.87421488761902,0
44.87421488761902,0
44.87421488761902,6
44.87421488761902,0
44.87421488761902,4
44.87421488761902,1
44.87421488761902,21
44.87421488761902,16
44.96624183654785,3
44.96624183654785,0
44.96624183654785,18
44.96624183654785,9
44.96824860572815,3
44.96824860572815,4
44.96824860572815,4
44.96824860572815,0
44.96824860572815,0
45.06303858757019,0
45.06303858757019,7
45.06303858757019,0
45.06303858757019,1
45.06303858757019,21
45.06303858757019,0
45.06303858757019,6
45.06303858757019,0
45.06303858757019,0
45.06303858757019,0
45.166322469711304,1
45.166322469711304,0
45.166322469711304,0
45.166322469711304,0
45.166322469711304,0
45.166322469711304,12
45.166322469711304,0
45.166322469711304,7
45.166322469711304,7
45.166322469711304,9
45.2687566280365,8
45.2687566280365,24
45.2687566280365,3
45.2687566280365,12
45.2687566280365,5
45.2687566280365,0
45.2687566280365,0
45.2687566280365,6
45.2687566280365,9
45.2687566280365,12
45.3655424118042,1
45.3655424118042,6
45.3655424118042,1
45.3655424118042,4
45.3655424118042,11
45.3655424118042,0
45.3655424118042,0
45.3655424118042,0
45.3655424118042,0
45.3655424118042,0
45.471901178359985,0
45.471901178359985,2
45.471901178359985,0
45.471901178359985,0
45.471901178359985,8
45.471901178359985,0
45.471901178359985,0
45.471901178359985,0
45.471901178359985,0
45.471901178359985,1
45.574066400527954,0
45.574066400527954,0
45.574066400527954,0
45.574066400527954,0
45.574066400527954,0
45.574066400527954,0
45.57607316970825,0
45.57607316970825,0
45.57607316970825,0
45.57607316970825,0
45.670130491256714,0
45.670130491256714,0
45.670130491256714,0
45.670130491256714,0
45.670130491256714,0
45.670130491256714,1
45.670130491256714,0
45.67213559150696,0
45.67213559150696,2
45.67213559150696,9
45.76602602005005,0
45.76602602005005,0
45.76602602005005,0
45.76602602005005,12
45.76602602005005,2
45.76803207397461,2
45.76803207397461,14
45.76803207397461,2
45.76803207397461,11
45.86112189292908,32
45.86112189292908,2
45.86112189292908,0
45.86112189292908,0
45.86112189292908,5
45.86112189292908,15
45.86112189292908,12
45.86112189292908,25
45.86112189292908,0
45.95420289039612,17
45.95420289039612,14
45.95420289039612,23
45.95420289039612,8
45.95420289039612,6
45.95420289039612,22
45.95420289039612,19
45.95420289039612,20
45.95420289039612,22
45.95420289039612,50
46.04945492744446,0
46.04945492744446,39
46.04945492744446,42
46.04945492744446,11
46.04945492744446,24
46.04945492744446,8
46.04945492744446,0
46.04945492744446,0
46.04945492744446,0
46.15624117851257,7
46.15624117851257,0
46.15624117851257,0
46.15624117851257,0
46.15624117851257,0
46.15624117851257,0
46.15624117851257,0
46.15624117851257,1
46.15624117851257,0
46.15624117851257,12
46.25554060935974,1
46.25554060935974,4
46.25554060935974,0
46.25554060935974,0
46.25554060935974,0
46.25554060935974,24
46.25554060935974,2
46.25554060935974,0
46.25554060935974,1
46.25554060935974,0
46.35512924194336,11
46.35512924194336,0
46.35512924194336,5
46.35512924194336,11
46.35512924194336,11
46.35512924194336,4
46.35512924194336,12
46.35512924194336,0
46.35512924194336,0
46.35512924194336,1
46.4475839138031,0
46.4475839138031,0
46.4475839138031,8
46.4475839138031,7
46.4475839138031,4
46.4475839138031,3
46.4475839138031,0
46.4475839138031,0
46.4475839138031,0
46.5423538684845,0
46.5423538684845,0
46.5423538684845,1
46.5423538684845,0
46.5423538684845,3
46.5423538684845,0
46.5423538684845,0
46.5423538684845,0
46.5423538684845,0
46.5423538684845,0
46.651983976364136,3
46.651983976364136,1
46.651983976364136,6
46.651983976364136,0
46.651983976364136,0
46.651983976364136,0
46.651983976364136,0
46.651983976364136,0
46.651983976364136,0
46.651983976364136,0
46.74910259246826,1
46.74910259246826,0
46.74910259246826,0
46.74910259246826,0
46.74910259246826,1
46.74910259246826,1
46.74910259246826,0
46.74910259246826,0
46.74910259246826,9
46.847803592681885,0
46.847803592681885,0
46.847803592681885,0
46.847803592681885,0
46.847803592681885,0
46.847803592681885,1
46.847803592681885,0
46.847803592681885,0
46.847803592681885,0
46.847803592681885,6
46.94118356704712,5
46.94118356704712,3
46.94118356704712,12
46.94118356704712,16
46.94118356704712,12
46.94118356704712,1
46.94118356704712,1
46.94118356704712,9
46.94118356704712,0
47.03482174873352,0
47.03482174873352,2
47.03482174873352,5
47.03482174873352,1
47.03482174873352,11
47.03482174873352,7
47.03482174873352,1
47.03482174873352,0
47.03482174873352,0
47.03482174873352,0
47.13009977340698,4
47.13009977340698,0
47.13009977340698,0
47.13009977340698,1
47.13009977340698,2
47.13009977340698,6
47.13009977340698,0
47.13009977340698,0
47.13009977340698,0
47.13009977340698,8
47.22559666633606,0
47.22559666633606,0
47.22559666633606,0
47.22559666633606,4
47.22559666633606,0
47.22559666633606,7
47.22559666633606,0
47.22559666633606,0
47.22559666633606,0
47.22559666633606,0
47.335954666137695,0
47.335954666137695,8
47.335954666137695,0
47.335954666137695,5
47.335954666137695,0
47.335954666137695,13
47.335954666137695,0
47.335954666137695,5
47.335954666137695,1
47.335954666137695,0
47.43093705177307,0
47.43093705177307,0
47.43093705177307,1
47.43093705177307,5
47.43093705177307,0
47.43093705177307,0
47.43093705177307,0
47.43093705177307,6
47.43093705177307,7
47.43093705177307,5
47.52599287033081,12
47.52599287033081,11
47.52599287033081,7
47.52599287033081,14
47.52599287033081,9
47.52599287033081,7
47.52599287033081,0
47.52599287033081,0
47.52599287033081,0
47.62195682525635,0
47.62195682525635,0
47.62195682525635,2
47.62195682525635,0
47.62195682525635,0
47.62195682525635,5
47.62195682525635,7
47.62195682525635,0
47.62195682525635,9
47.72720456123352,0
47.72720456123352,9
47.72720456123352,9
47.72720456123352,0
47.72720456123352,8
47.72720456123352,0
47.72720456123352,0
47.72720456123352,0
47.72720456123352,0
47.72720456123352,0
47.820157051086426,9
47.820157051086426,2
47.820157051086426,10
47.820157051086426,0
47.820157051086426,0
47.820157051086426,0
47.820157051086426,1
47.820157051086426,0
47.820157051086426,0
47.90752363204956,0
47.90752363204956,2
47.90752363204956,0
47.90752363204956,0
47.90752363204956,1
47.90752363204956,0
47.90752363204956,0
47.90752363204956,8
47.90752363204956,0
48.00295805931091,2
48.00295805931091,5
48.00295805931091,5
48.00295805931091,0
48.00295805931091,0
48.00295805931091,0
48.00295805931091,4
48.00295805931091,0
48.00295805931091,0
48.100045680999756,1
48.100045680999756,10
48.100045680999756,19
48.100045680999756,0
48.100045680999756,44
48.100045680999756,0
48.100045680999756,0
48.100045680999756,11
48.100045680999756,15
48.19476819038391,6
48.19476819038391,5
48.19476819038391,0
48.19476819038391,22
48.196773052215576,18
48.196773052215576,0
48.196773052215576,16
48.196773052215576,24
48.196773052215576,22
48.196773052215576,26
48.290650844573975,53
48.290650844573975,0
48.290650844573975,0
48.290650844573975,69
48.290650844573975,29
48.290650844573975,10
48.290650844573975,2
48.290650844573975,3
48.290650844573975,8
48.38525605201721,2
48.38525605201721,40
48.38525605201721,15
48.38525605201721,0
48.38525605201721,7
48.38525605201721,0
48.38525605201721,0
48.38525605201721,7
48.38525605201721,0
48.46419334411621,3
48.46419334411621,5
48.46419334411621,1
48.46419334411621,0
48.46419334411621,38
48.46419334411621,12
48.46419334411621,0
48.46419334411621,8
48.46419334411621,206
48.575570821762085,68
48.575570821762085,66
48.575570821762085,72
48.575570821762085,0
48.575570821762085,27
48.575570821762085,27
48.575570821762085,2
48.575570821762085,45
48.575570821762085,178
48.575570821762085,137
48.67984104156494,165
48.67984104156494,156
48.67984104156494,187
48.67984104156494,87
48.67984104156494,57
48.67984104156494,86
48.67984104156494,70
48.67984104156494,182
48.67984104156494,101
48.67984104156494,124
48.76777100563049,122
48.76777100563049,111
48.76777100563049,354
48.76777100563049,100
48.76777100563049,109
48.76777100563049,42
48.76777100563049,154
48.76777100563049,23
48.76777100563049,23
48.76777100563049,79
48.87997364997864,25
48.87997364997864,38
48.87997364997864,81
48.87997364997864,12
48.87997364997864,218
48.87997364997864,3
48.87997364997864,6
48.87997364997864,22
48.87997364997864,215
48.87997364997864,96
48.97748017311096,68
48.97748017311096,243
48.97748017311096,1
48.97748017311096,35
48.97748017311096,50
48.97748017311096,11
48.97748017311096,145
48.97748017311096,81
48.97748017311096,8
48.97748017311096,67
49.08645033836365,146
49.08645033836365,5
49.08645033836365,134
49.08645033836365,11
49.08645033836365,136
49.08645033836365,173
49.08645033836365,159
49.08645033836365,53
49.08645033836365,103
49.08645033836365,74
49.182730197906494,167
49.182730197906494,155
49.182730197906494,28
49.182730197906494,45
49.182730197906494,43
49.182730197906494,239
49.182730197906494,24
49.182730197906494,7
49.182730197906494,18
49.182730197906494,77
49.28203058242798,266
49.28203058242798,88
49.28203058242798,100
49.28203058242798,1
49.28203058242798,95
49.28203058242798,281
49.28203058242798,6
49.28203058242798,28
49.28203058242798,24
49.28203058242798,43
49.389045000076294,435
49.389045000076294,263
49.389045000076294,14
49.389045000076294,8
49.389045000076294,180
49.389045000076294,12
49.389045000076294,275
49.389045000076294,8
49.389045000076294,47
49.389045000076294,29
49.49591779708862,34
49.49591779708862,58
49.49591779708862,168
49.49591779708862,139
49.49591779708862,224
49.49591779708862,69
49.49591779708862,356
49.49591779708862,35
49.49591779708862,111
49.49591779708862,56
49.57878756523132,96
49.57878756523132,74
49.57878756523132,81
49.57878756523132,47
49.57878756523132,67
49.57878756523132,30
49.57878756523132,28
49.57878756523132,17
49.57878756523132,96
49.674535036087036,16
49.674535036087036,74
49.674535036087036,0
49.674535036087036,46
49.674535036087036,308
49.674535036087036,186
49.674535036087036,198
49.674535036087036,110
49.674535036087036,11
49.674535036087036,7
49.770045042037964,169
49.770045042037964,419
49.770045042037964,109
49.770045042037964,9
49.770045042037964,14
49.770045042037964,91
49.770045042037964,26
49.770045042037964,86
49.770045042037964,23
49.8805730342865,25
49.8805730342865,48
49.8805730342865,69
49.8805730342865,92
49.8805730342865,149
49.8805730342865,162
49.88258194923401,137
49.88258194923401,14
49.88258194923401,24
49.97544622421265,73
49.97544622421265,111
49.97544622421265,101
49.97544622421265,74
49.97544622421265,26
49.97544622421265,0
49.97544622421265,1
49.97544622421265,3
49.97544622421265,67
49.97544622421265,166
50.072932720184326,40
50.072932720184326,29
50.072932720184326,81
50.072932720184326,76
50.072932720184326,232
50.072932720184326,93
50.072932720184326,136
50.072932720184326,431
50.072932720184326,229
50.072932720184326,87
50.16893124580383,30
50.16893124580383,62
50.16893124580383,88
50.16893124580383,122
50.16893124580383,179
50.16893124580383,17
50.16893124580383,89
50.16893124580383,337
50.16893124580383,105
50.16893124580383,14
50.28229069709778,23
50.28229069709778,72
50.28229069709778,25
50.28229069709778,93
50.28229069709778,225
50.28229069709778,232
50.28229069709778,308
50.28229069709778,67
50.28229069709778,132
50.28229069709778,4
50.38118553161621,62
50.38118553161621,71
50.38118553161621,97
50.38118553161621,172
50.38118553161621,87
50.38118553161621,133
50.38118553161621,51
50.382808446884155,93
50.382808446884155,196
50.481674671173096,160
50.481674671173096,126
50.481674671173096,75
50.481674671173096,415
50.48368048667908,165
50.48368048667908,157
50.48368048667908,23
50.48368048667908,26
50.48368048667908,46
50.48368048667908,63
50.56519889831543,161
50.56519889831543,57
50.56519889831543,81
50.56519889831543,53
50.56519889831543,97
50.56519889831543,94
50.56519889831543,244
50.56519889831543,86
50.56519889831543,192
50.66162848472595,110
50.66162848472595,257
50.66162848472595,97
50.66162848472595,100
50.66162848472595,33
50.66162848472595,154
50.66162848472595,77
50.66162848472595,76
50.66162848472595,128
50.756969928741455,267
50.756969928741455,205
50.756969928741455,16
50.756969928741455,101
50.756969928741455,26
50.756969928741455,187
50.756969928741455,15
50.756969928741455,132
50.756969928741455,44
50.756969928741455,78
50.85589361190796,23
50.85589361190796,0
50.85589361190796,2
50.85589361190796,36
50.85589361190796,219
50.85589361190796,464
50.85589361190796,152
50.85589361190796,202
50.85589361190796,0
50.94738054275513,147
50.94738054275513,87
50.94738054275513,178
50.94738054275513,143
50.94738054275513,76
50.94738054275513,13
50.94738054275513,205
50.94738054275513,136
50.94738054275513,201
51.04325866699219,27
51.04325866699219,64
51.04325866699219,0
51.04325866699219,26
51.04325866699219,119
51.04325866699219,6
51.04325866699219,94
51.04325866699219,48
51.04325866699219,156
51.12257957458496,220
51.12257957458496,60
51.12257957458496,0
51.12257957458496,109
51.12257957458496,30
51.13848948478699,225
51.13848948478699,158
51.13848948478699,463
51.13848948478699,65
51.21971344947815,32
51.21971344947815,0
51.21971344947815,131
51.21971344947815,67
51.21971344947815,302
51.21971344947815,17
51.21971344947815,21
51.23344945907593,15
51.23344945907593,59
51.323593616485596,132
51.323593616485596,54
51.323593616485596,115
51.323593616485596,12
51.323593616485596,216
51.323593616485596,82
51.323593616485596,40
51.323593616485596,148
51.323593616485596,97
51.323593616485596,25
51.41954684257507,33
51.41954684257507,65
51.41954684257507,57
51.41954684257507,306
51.41954684257507,164
51.41954684257507,22
51.41954684257507,185
51.41954684257507,122
51.41954684257507,44
51.506991147994995,3
51.506991147994995,127
51.506991147994995,166
51.506991147994995,147
51.506991147994995,33
51.506991147994995,4
51.506991147994995,244
51.515499114990234,15
51.515499114990234,56
51.60827159881592,280
51.60827159881592,0
51.60827159881592,135
51.60827159881592,27
51.60827159881592,9
51.60827159881592,11
51.60827159881592,10
51.60827159881592,47
51.60827159881592,23
51.69504380226135,27
51.69504380226135,90
51.69504380226135,7
51.69504380226135,13
51.69504380226135,70
51.69504380226135,2
51.69504380226135,78
51.69504380226135,34
51.69504380226135,3
51.79457879066467,19
51.79457879066467,129
51.79457879066467,120
51.79457879066467,11
51.79457879066467,12
51.79457879066467,50
51.79457879066467,28
51.79457879066467,1
51.79457879066467,0
51.88797569274902,170
51.88797569274902,7
51.88797569274902,0
51.88797569274902,118
51.88797569274902,0
51.88797569274902,12
51.88797569274902,2
51.88797569274902,4
51.88797569274902,227
51.88797569274902,271
51.98182964324951,65
51.98182964324951,11
51.98182964324951,8
51.98182964324951,0
51.98182964324951,0
51.98182964324951,1
51.98182964324951,3
51.98182964324951,1
51.98182964324951,5
51.98182964324951,5
52.09171915054321,53
52.09171915054321,40
52.09171915054321,6
52.09171915054321,12
52.09171915054321,22
52.09171915054321,0
52.09171915054321,3
52.09222745895386,0
52.09222745895386,3
52.09222745895386,0
52.186532735824585,0
52.186532735824585,0
52.186532735824585,7
52.186532735824585,1
52.186532735824585,3
52.186532735824585,0
52.186532735824585,1
52.186532735824585,9
52.186532735824585,0
52.186532735824585,1
52.293880462646484,0
52.293880462646484,5
52.293880462646484,7
52.293880462646484,0
52.293880462646484,25
52.293880462646484,6
52.293880462646484,14
52.293880462646484,4
52.293880462646484,4
52.293880462646484,0
52.393585443496704,0
52.393585443496704,0
52.393585443496704,0
52.393585443496704,0
52.393585443496704,16
52.393585443496704,23
52.393585443496704,11
52.393585443496704,6
52.393585443496704,2
52.393585443496704,0
52.489890575408936,0
52.489890575408936,0
52.489890575408936,0
52.489890575408936,0
52.489890575408936,0
52.489890575408936,0
52.489890575408936,5
52.489890575408936,0
52.489890575408936,0
52.58981943130493,0
52.58981943130493,9
52.58981943130493,1
52.58981943130493,0
52.58981943130493,3
52.58981943130493,9
52.58981943130493,0
52.58981943130493,0
52.58981943130493,8
52.58981943130493,0
52.68027067184448,0
52.68027067184448,0
52.68027067184448,0
52.68027067184448,2
52.68027067184448,0
52.68027067184448,3
52.68027067184448,7
52.68027067184448,0
52.68027067184448,0
52.77930426597595,1
52.77930426597595,10
52.77930426597595,0
52.77930426597595,5
52.77930426597595,1
52.77930426597595,0
52.77930426597595,1
52.77930426597595,0
52.77930426597595,0
52.87030005455017,10
52.87030005455017,10
52.87030005455017,6
52.87030005455017,0
52.87030005455017,10
52.87030005455017,8
52.87030005455017,12
52.87030005455017,10
52.87030005455017,0
52.87030005455017,0
52.96534538269043,8
52.96534538269043,0
52.96534538269043,0
52.96534538269043,6
52.96534538269043,8
52.96534538269043,6
52.96534538269043,8
52.96534538269043,3
52.96534538269043,2
53.062426805496216,0
53.062426805496216,8
53.062426805496216,0
53.062426805496216,0
53.062426805496216,6
53.062426805496216,0
53.062426805496216,4
53.062426805496216,0
53.062426805496216,1
53.062426805496216,0
53.15815329551697,0
53.15815329551697,3
53.15815329551697,0
53.15815329551697,0
53.15815329551697,2
53.15815329551697,0
53.15815329551697,8
53.15815329551697,0
53.15815329551697,2
53.254918813705444,3
53.254918813705444,0
53.254918813705444,1
53.254918813705444,0
53.254918813705444,0
53.254918813705444,2
53.254918813705444,0
53.254918813705444,0
53.254918813705444,0
53.254918813705444,4
53.346787214279175,0
53.346787214279175,12
53.346787214279175,2
53.346787214279175,3
53.346787214279175,0
53.346787214279175,2
53.346787214279175,4
53.346787214279175,0
53.346787214279175,0
53.44284439086914,0
53.44284439086914,0
53.44284439086914,6
53.44284439086914,9
53.44284439086914,14
53.44284439086914,11
53.44284439086914,17
53.44284439086914,9
53.44284439086914,6
53.44284439086914,12
53.55556607246399,16
53.55556607246399,12
53.55556607246399,1
53.55556607246399,0
53.55556607246399,3
53.55556607246399,7
53.55556607246399,22
53.55556607246399,0
53.55556607246399,0
53.55556607246399,0
53.65077066421509,7
53.65077066421509,0
53.65077066421509,13
53.65077066421509,6
53.65077066421509,0
53.65077066421509,1
53.65077066421509,6
53.65077066421509,0
53.65077066421509,0
53.74625372886658,8
53.74625372886658,0
53.74625372886658,5
53.74625372886658,0
53.74625372886658,9
53.74625372886658,4
53.74625372886658,1
53.74625372886658,0
53.74625372886658,5
53.74625372886658,0
53.84070611000061,0
53.84070611000061,0
53.84070611000061,0
53.84070611000061,1
53.84070611000061,6
53.84070611000061,4
53.84070611000061,0
53.84070611000061,0
53.84070611000061,3
53.84070611000061,1
53.9526162147522,0
53.9526162147522,4
53.9526162147522,0
53.9526162147522,0
53.9526162147522,0
53.9526162147522,4
53.9526162147522,0
53.9526162147522,0
53.9526162147522,0
53.9526162147522,0
54.04723858833313,4
54.04723858833313,0
54.04723858833313,8
54.04723858833313,1
54.04723858833313,3
54.04723858833313,0
54.04723858833313,18
54.04723858833313,10
54.04723858833313,5
54.04723858833313,0
54.14632034301758,12
54.14632034301758,0
54.14632034301758,9
54.14632034301758,7
54.14632034301758,13
54.14632034301758,4
54.14632034301758,6
54.14632034301758,0
54.14632034301758,0
54.254432916641235,5
54.254432916641235,3
54.254432916641235,0
54.254432916641235,0
54.254432916641235,0
54.254432916641235,0
54.254432916641235,0
54.254432916641235,0
54.254432916641235,7
54.254432916641235,0
54.34892249107361,0
54.34892249107361,0
54.34892249107361,2
54.34892249107361,0
54.34892249107361,0
54.34892249107361,1
54.34892249107361,0
54.34892249107361,0
54.34892249107361,14
54.34892249107361,0
54.44463920593262,0
54.44463920593262,1
54.44463920593262,0
54.44463920593262,1
54.44463920593262,0
54.44463920593262,0
54.44463920593262,0
54.44463920593262,0
54.44463920593262,0
54.44463920593262,1
54.56033444404602,10
54.56033444404602,4
54.56033444404602,0
54.56033444404602,0
54.56033444404602,0
54.56033444404602,8
54.56033444404602,0
54.56033444404602,0
54.56033444404602,0
54.56033444404602,0
54.65995001792908,11
54.65995001792908,5
54.65995001792908,15
54.65995001792908,8
54.65995001792908,13
54.65995001792908,0
54.65995001792908,4
54.65995001792908,6
54.65995001792908,1
54.65995001792908,2
54.747217416763306,0
54.747217416763306,10
54.747217416763306,15
54.747217416763306,9
54.747217416763306,4
54.747217416763306,0
54.747217416763306,0
54.747217416763306,0
54.747217416763306,1
54.747217416763306,1
54.86278414726257,0
54.86278414726257,12
54.86278414726257,0
54.86278414726257,1
54.86278414726257,1
54.86278414726257,0
54.86278414726257,14
54.86278414726257,0
54.86278414726257,1
54.86278414726257,0
54.96528148651123,0
54.96528148651123,1
54.96528148651123,0
54.96528148651123,0
54.96528148651123,0
54.96528148651123,5
54.96528148651123,9
54.96528148651123,0
54.96528148651123,0
54.96528148651123,1
55.0718207359314,0
55.0718207359314,18
55.0718207359314,6
55.0718207359314,2
55.07382583618164,5
55.07382583618164,2
55.07382583618164,3
55.07382583618164,10
55.07382583618164,3
55.07382583618164,7
55.07382583618164,0
55.16943359375,0
55.16943359375,0
55.16943359375,0
55.16943359375,0
55.16943359375,2
55.16943359375,2
55.16943359375,14
55.16943359375,8
55.16943359375,6
55.27657723426819,26
55.27657723426819,4
55.27657723426819,10
55.27657723426819,12
55.27657723426819,2
55.27657723426819,3
55.27657723426819,0
55.27657723426819,0
55.27657723426819,3
55.27657723426819,8
55.27657723426819,4
55.379297971725464,0
55.379297971725464,0
55.379297971725464,2
55.379297971725464,2
55.379297971725464,13
55.379297971725464,0
55.379297971725464,5
55.379297971725464,0
55.379297971725464,2
55.379297971725464,2
55.48600101470947,0
55.48600101470947,6
55.48600101470947,0
55.48600101470947,3
55.48600101470947,0
55.48600101470947,5
55.48600101470947,0
55.48600101470947,0
55.48600101470947,0
55.48600101470947,3
55.5964629650116,5
55.5964629650116,2
55.5964629650116,11
55.5964629650116,2
55.5964629650116,1
55.5964629650116,0
55.5964629650116,4
55.5964629650116,2
55.5964629650116,0
55.5964629650116,2
55.5964629650116,6
55.679298877716064,10
55.679298877716064,1
55.679298877716064,8
55.679298877716064,0
55.679298877716064,0
55.679298877716064,0
55.679298877716064,0
55.69527769088745,0
55.69527769088745,12
55.69527769088745,0
55.79492664337158,12
55.79492664337158,15
55.79492664337158,31
55.79492664337158,27
55.79492664337158,32
55.79492664337158,25
55.79492664337158,41
55.79492664337158,30
55.79492664337158,18
55.79492664337158,4
55.885539293289185,18
55.885539293289185,27
55.885539293289185,26
55.885539293289185,22
55.885539293289185,17
55.885539293289185,10
55.885539293289185,15
55.885539293289185,0
55.885539293289185,13
55.885539293289185,5
55.996999740600586,0
55.996999740600586,0
55.996999740600586,0
55.996999740600586,4
55.996999740600586,0
55.996999740600586,1
55.996999740600586,0
55.996999740600586,1
55.996999740600586,0
56.092719316482544,0
56.092719316482544,0
56.092719316482544,15
56.092719316482544,0
56.092719316482544,6
56.092719316482544,3
56.092719316482544,7
56.092719316482544,4
56.092719316482544,1
56.092719316482544,0
56.19182991981506,8
56.19182991981506,6
56.19182991981506,0
56.19182991981506,0
56.19182991981506,0
56.19182991981506,11
56.19182991981506,6
56.19182991981506,0
56.19182991981506,0
56.19182991981506,0
56.28727889060974,2
56.289284467697144,0
56.289284467697144,2
56.289284467697144,0
56.289284467697144,7
56.289284467697144,9
56.289284467697144,21
56.289284467697144,12
56.289284467697144,25
56.38430738449097,25
56.38430738449097,44
56.38430738449097,15
56.38430738449097,20
56.38430738449097,0
56.38430738449097,0
56.38430738449097,0
56.38430738449097,0
56.38631248474121,10
56.38631248474121,17
56.48131966590881,3
56.48131966590881,5
56.48131966590881,1
56.48131966590881,16
56.48131966590881,0
56.48131966590881,0
56.48131966590881,1
56.48131966590881,5
56.48131966590881,6
56.56946301460266,0
56.56946301460266,3
56.56946301460266,0
56.56946301460266,4
56.56946301460266,2
56.56946301460266,6
56.56946301460266,0
56.56946301460266,0
56.56946301460266,15
56.66401529312134,4
56.66401529312134,4
56.66401529312134,14
56.66401529312134,0
56.66401529312134,0
56.66401529312134,0
56.66401529312134,10
56.66401529312134,0
56.66401529312134,0
56.66401529312134,0
56.76051306724548,0
56.76051306724548,0
56.76051306724548,0
56.76051306724548,0
56.76051306724548,0
56.76051306724548,0
56.76051306724548,0
56.76051306724548,1
56.76051306724548,3
56.85540008544922,7
56.85540008544922,0
56.85540008544922,0
56.85540008544922,0
56.85540008544922,0
56.85540008544922,9
56.85540008544922,5
56.85540008544922,12
56.85540008544922,7
56.949986934661865,10
56.949986934661865,12
56.949986934661865,16
56.949986934661865,2
56.949986934661865,6
56.949986934661865,0
56.949986934661865,6
56.949986934661865,0
56.949986934661865,19
56.949986934661865,2
57.045560359954834,12
57.045560359954834,3
57.045560359954834,5
57.045560359954834,0
57.045560359954834,6
57.045560359954834,0
57.045560359954834,0
57.045560359954834,7
57.045560359954834,0
57.045560359954834,0
57.15796756744385,0
57.15796756744385,0
57.15796756744385,0
57.15796756744385,2
57.15796756744385,1
57.15796756744385,0
57.15796756744385,2
57.15796756744385,3
57.15796756744385,0
57.15796756744385,0
57.2620906829834,3
57.2620906829834,3
57.2620906829834,0
57.2620906829834,6
57.2620906829834,7
57.2620906829834,3
57.2620906829834,2
57.2620906829834,0
57.2620906829834,0
57.2620906829834,0
57.361390113830566,4
57.361390113830566,0
57.361390113830566,2
57.361390113830566,0
57.361390113830566,3
57.361390113830566,5
57.36313819885254,0
57.36313819885254,0
57.36313819885254,0
57.36313819885254,0
57.459070920944214,1
57.459070920944214,1
57.459070920944214,1
57.459070920944214,3
57.459070920944214,9
57.459070920944214,12
57.459070920944214,4
57.459070920944214,22
57.459070920944214,1
57.55523920059204,15
57.55523920059204,6
57.55523920059204,0
57.55523920059204,6
57.55523920059204,0
57.55523920059204,0
57.55523920059204,7
57.55523920059204,0
57.55523920059204,14
57.65003442764282,17
57.65003442764282,13
57.65003442764282,0
57.65003442764282,3
57.65204119682312,5
57.65204119682312,0
57.65204119682312,0
57.65204119682312,0
57.65204119682312,0
57.65204119682312,4
57.746615171432495,0
57.746615171432495,0
57.746615171432495,3
57.746615171432495,0
57.746615171432495,10
57.746615171432495,0
57.746615171432495,6
57.746615171432495,2
57.746615171432495,2
57.83827328681946,0
57.83827328681946,2
57.83827328681946,0
57.83827328681946,7
57.83827328681946,0
57.83827328681946,8
57.83827328681946,0
57.83827328681946,0
57.83827328681946,0
57.83827328681946,0
57.93343114852905,0
57.93343114852905,0
57.93343114852905,0
57.93343114852905,0
57.93343114852905,0
57.93343114852905,2
57.93343114852905,0
57.93343114852905,2
57.93343114852905,2
57.93343114852905,5
58.0443754196167,3
58.0443754196167,6
58.0443754196167,0
58.0443754196167,10
58.0443754196167,0
58.0443754196167,8
58.0443754196167,4
58.0443754196167,15
58.04523944854736,11
58.04523944854736,17
58.13970351219177,9
58.13970351219177,7
58.13970351219177,5
58.13970351219177,0
58.13970351219177,0
58.13970351219177,7
58.13970351219177,19
58.13970351219177,14
