Time,EMG
0.7279233932495117,1
0.7279233932495117,3
0.7279233932495117,1
0.7279233932495117,1
0.7279233932495117,8
0.7279233932495117,5
0.7279233932495117,9
0.7279233932495117,5
0.7279233932495117,15
0.7279233932495117,14
0.7279233932495117,0
0.7279233932495117,0
0.7279233932495117,5
0.7279233932495117,0
0.7279233932495117,6
0.7279233932495117,6
0.7279233932495117,11
0.7279233932495117,8
0.7279233932495117,8
0.7279233932495117,3
0.7279233932495117,13
0.7279233932495117,21
0.7279233932495117,3
0.7279233932495117,4
0.7279233932495117,1
0.7279233932495117,0
0.7279233932495117,0
0.7279233932495117,0
0.7279233932495117,0
0.7279233932495117,1
0.7279233932495117,0
0.7279233932495117,5
0.7279233932495117,0
0.7279233932495117,0
0.7279233932495117,0
0.7279233932495117,1
0.7279233932495117,0
0.7279233932495117,0
0.7279233932495117,0
0.7279233932495117,0
0.7279233932495117,0
0.7279233932495117,0
0.7279233932495117,0
0.7279233932495117,0
0.7279233932495117,0
0.7279233932495117,0
0.7279233932495117,0
0.7279233932495117,0
0.7279233932495117,0
0.7279233932495117,0
0.7279233932495117,0
0.7279233932495117,2
0.7279233932495117,0
0.7279233932495117,0
0.7279233932495117,0
0.7279233932495117,0
0.7279233932495117,0
0.7279233932495117,0
0.7380502223968506,0
0.7380502223968506,7
0.7380502223968506,0
0.7380502223968506,4
0.7380502223968506,5
0.7380502223968506,7
0.7380502223968506,4
0.7380502223968506,6
0.7380502223968506,5
0.7380502223968506,8
0.7380502223968506,1
0.7380502223968506,2
0.7380502223968506,0
0.7380502223968506,0
0.7380502223968506,1
0.7380502223968506,8
0.7380502223968506,9
0.7380502223968506,7
0.7380502223968506,1
0.7380502223968506,3
0.7380502223968506,2
0.7410707473754883,4
0.7410707473754883,0
0.7410707473754883,1
0.7410707473754883,0
0.7410707473754883,3
0.7410707473754883,1
0.7410707473754883,0
0.7410707473754883,0
0.7410707473754883,15
0.7410707473754883,15
0.7410707473754883,0
0.7410707473754883,4
0.7410707473754883,0
0.7410707473754883,0
0.7410707473754883,6
0.7410707473754883,0
0.7410707473754883,1
0.7410707473754883,8
0.7410707473754883,0
0.7410707473754883,72
0.7410707473754883,211
0.7410707473754883,75
0.7410707473754883,30
0.7410707473754883,67
0.7410707473754883,41
0.7410707473754883,20
0.7410707473754883,12
0.7410707473754883,62
0.7410707473754883,46
0.7410707473754883,47
0.7410707473754883,12
0.7410707473754883,44
0.7410707473754883,101
0.7410707473754883,10
0.7410707473754883,25
0.7410707473754883,0
0.7410707473754883,29
0.7410707473754883,28
0.7410707473754883,32
0.7410707473754883,0
0.7410707473754883,8
0.7410707473754883,0
0.7410707473754883,0
1.0043432712554932,15
1.0043432712554932,0
1.0043432712554932,6
1.0043432712554932,7
1.0043432712554932,13
1.0043432712554932,0
1.0043432712554932,21
1.0043432712554932,9
1.0043432712554932,12
1.0043432712554932,0
1.0043432712554932,9
1.0043432712554932,8
1.0043432712554932,3
1.0043432712554932,0
1.0043432712554932,2
1.0043432712554932,0
1.0043432712554932,4
1.0043432712554932,0
1.0043432712554932,0
1.0043432712554932,4
1.0043432712554932,2
1.0043432712554932,0
1.0043432712554932,1
1.0043432712554932,1
1.0043432712554932,8
1.2196331024169922,10
1.2196331024169922,0
1.2196331024169922,4
1.2196331024169922,0
1.2196331024169922,0
1.2196331024169922,0
1.2196331024169922,6
1.2196331024169922,8
1.2196331024169922,0
1.2196331024169922,0
1.2196331024169922,0
1.2196331024169922,0
1.2196331024169922,10
1.2196331024169922,7
1.2196331024169922,0
1.2196331024169922,14
1.2196331024169922,0
1.2196331024169922,5
1.2196331024169922,0
1.2196331024169922,0
1.2196331024169922,2
1.2196331024169922,0
1.3930048942565918,1
1.3930048942565918,1
1.3930048942565918,29
1.3930048942565918,40
1.3930048942565918,0
1.3930048942565918,1
1.3930048942565918,14
1.3930048942565918,16
1.3930048942565918,6
1.3930048942565918,0
1.3930048942565918,42
1.3930048942565918,1
1.3930048942565918,184
1.3930048942565918,34
1.3930048942565918,56
1.3930048942565918,27
1.559664249420166,40
1.559664249420166,60
1.559664249420166,0
1.559664249420166,144
1.559664249420166,0
1.559664249420166,1
1.559664249420166,53
1.559664249420166,37
1.559664249420166,45
1.559664249420166,208
1.559664249420166,23
1.565875768661499,12
1.565875768661499,10
1.565875768661499,52
1.565875768661499,35
1.565875768661499,28
1.565875768661499,50
1.7277450561523438,8
1.7277450561523438,57
1.7277450561523438,5
1.7277450561523438,108
1.7277450561523438,138
1.7277450561523438,20
1.7277450561523438,4
1.7277450561523438,41
1.7277450561523438,3
1.7277450561523438,12
1.7277450561523438,53
1.7277450561523438,79
1.7277450561523438,43
1.737870216369629,19
1.737870216369629,169
1.737870216369629,88
1.737870216369629,83
1.8367431163787842,20
1.8367431163787842,61
1.8367431163787842,121
1.8367431163787842,232
1.8367431163787842,5
1.8367431163787842,17
1.8367431163787842,26
1.8367431163787842,59
1.8367431163787842,167
1.8367431163787842,138
1.9337012767791748,30
1.9337012767791748,23
1.9337012767791748,2
1.9337012767791748,0
1.9337012767791748,0
1.9337012767791748,0
1.9337012767791748,0
1.9337012767791748,0
1.9337012767791748,0
1.9337012767791748,0
2.029998302459717,0
2.029998302459717,0
2.029998302459717,0
2.029998302459717,0
2.029998302459717,0
2.029998302459717,0
2.029998302459717,9
2.029998302459717,0
2.029998302459717,1
2.1374566555023193,0
2.1374566555023193,2
2.1374566555023193,0
2.1374566555023193,0
2.1374566555023193,3
2.1374566555023193,0
2.1374566555023193,0
2.1374566555023193,0
2.1374566555023193,0
2.1374566555023193,2
2.2484230995178223,2
2.2484230995178223,0
2.2484230995178223,2
2.2484230995178223,12
2.2484230995178223,0
2.2484230995178223,0
2.2484230995178223,0
2.2484230995178223,0
2.2484230995178223,0
2.2484230995178223,18
2.2484230995178223,7
2.3467304706573486,13
2.3467304706573486,0
2.3467304706573486,0
2.3467304706573486,0
2.3467304706573486,3
2.3467304706573486,15
2.3467304706573486,4
2.3467304706573486,6
2.3467304706573486,8
2.3467304706573486,2
2.3467304706573486,1
2.4576382637023926,0
2.4576382637023926,4
2.4576382637023926,6
2.4576382637023926,3
2.4576382637023926,1
2.4576382637023926,0
2.4576382637023926,13
2.4576382637023926,3
2.4576382637023926,0
2.4576382637023926,60
2.554569959640503,7
2.554569959640503,140
2.554569959640503,1
2.554569959640503,6
2.554569959640503,1
2.554569959640503,1
2.554569959640503,4
2.554569959640503,25
2.554569959640503,15
2.554569959640503,0
2.650424003601074,11
2.650424003601074,7
2.650424003601074,25
2.650424003601074,17
2.650424003601074,0
2.650424003601074,11
2.666471004486084,3
2.666471004486084,1
2.666471004486084,0
2.666471004486084,15
2.7622759342193604,1
2.7622759342193604,0
2.7622759342193604,4
2.7622759342193604,0
2.7622759342193604,0
2.7622759342193604,0
2.7622759342193604,0
2.7622759342193604,7
2.7622759342193604,12
2.7622759342193604,7
2.7622759342193604,39
2.873438596725464,32
2.873438596725464,12
2.873438596725464,51
2.873438596725464,37
2.873438596725464,61
2.873438596725464,2
2.873438596725464,3
2.873438596725464,14
2.873438596725464,38
2.873438596725464,0
2.983769178390503,76
2.983769178390503,85
2.983769178390503,6
2.983769178390503,153
2.983769178390503,31
2.983769178390503,22
2.983769178390503,0
2.983769178390503,1
2.983769178390503,48
2.983769178390503,41
3.0888752937316895,0
3.0888752937316895,34
3.0888752937316895,0
3.0888752937316895,52
3.0888752937316895,105
3.0888752937316895,21
3.0888752937316895,20
3.0888752937316895,0
3.0888752937316895,5
3.0888752937316895,68
3.0888752937316895,216
3.1890554428100586,0
3.1890554428100586,11
3.1890554428100586,3
3.1890554428100586,16
3.1890554428100586,0
3.1890554428100586,73
3.1890554428100586,0
3.1890554428100586,0
3.1890554428100586,4
3.1890554428100586,34
3.1890554428100586,0
3.2997825145721436,5
3.2997825145721436,2
3.2997825145721436,10
3.2997825145721436,25
3.2997825145721436,83
3.2997825145721436,56
3.2997825145721436,5
3.2997825145721436,54
3.2997825145721436,21
3.2997825145721436,103
3.4113872051239014,21
3.4113872051239014,42
3.4113872051239014,56
3.4113872051239014,54
3.4113872051239014,17
3.4113872051239014,52
3.4113872051239014,122
3.4113872051239014,33
3.4113872051239014,30
3.4113872051239014,0
3.4113872051239014,97
3.52339768409729,58
3.52339768409729,22
3.52339768409729,18
3.52339768409729,14
3.52339768409729,0
3.52339768409729,3
3.52339768409729,53
3.52339768409729,19
3.52339768409729,0
3.52339768409729,8
3.62677001953125,4
3.62677001953125,2
3.62677001953125,2
3.62677001953125,5
3.62677001953125,3
3.62677001953125,22
3.62677001953125,2
3.62677001953125,8
3.62677001953125,47
3.62677001953125,132
3.729741334915161,64
3.729741334915161,17
3.729741334915161,16
3.729741334915161,4
3.729741334915161,0
3.729741334915161,0
3.729741334915161,0
3.729741334915161,0
3.729741334915161,0
3.729741334915161,1
3.8259990215301514,0
3.8259990215301514,0
3.8259990215301514,0
3.8259990215301514,0
3.8259990215301514,4
3.8259990215301514,17
3.8280065059661865,22
3.8280065059661865,1
3.8280065059661865,0
3.8280065059661865,2
3.92561936378479,4
3.92561936378479,49
3.92561936378479,10
3.92561936378479,15
3.92561936378479,12
3.92561936378479,11
3.92561936378479,29
3.92561936378479,0
3.92561936378479,13
3.92561936378479,18
4.026272535324097,120
4.026272535324097,16
4.026272535324097,3
4.026272535324097,3
4.026272535324097,0
4.026272535324097,12
4.026272535324097,0
4.026272535324097,13
4.026272535324097,5
4.026272535324097,0
4.108584642410278,0
4.108584642410278,0
4.108584642410278,0
4.108584642410278,5
4.108584642410278,6
4.108584642410278,3
4.108584642410278,0
4.108584642410278,0
4.108584642410278,0
4.2220988273620605,0
4.2220988273620605,0
4.2220988273620605,0
4.2220988273620605,42
4.2220988273620605,2
4.2220988273620605,0
4.2220988273620605,0
4.2220988273620605,0
4.2220988273620605,5
4.2220988273620605,1
4.31509804725647,0
4.31509804725647,1
4.31509804725647,0
4.31509804725647,0
4.31509804725647,0
4.31509804725647,0
4.31509804725647,0
4.31509804725647,1
4.31509804725647,1
4.394573450088501,1
4.394573450088501,0
4.394573450088501,0
4.394573450088501,8
4.394573450088501,4
4.394573450088501,0
4.394573450088501,0
4.394573450088501,0
4.394573450088501,0
4.5041422843933105,3
4.5041422843933105,0
4.5041422843933105,0
4.5041422843933105,5
4.5041422843933105,0
4.5041422843933105,0
4.5041422843933105,6
4.5041422843933105,0
4.506147861480713,0
4.506147861480713,0
4.585250616073608,0
4.585250616073608,0
4.585250616073608,1
4.585250616073608,0
4.585250616073608,0
4.585250616073608,0
4.585250616073608,0
4.585250616073608,0
4.585250616073608,1
4.681843996047974,0
4.681843996047974,0
4.681843996047974,0
4.681843996047974,0
4.681843996047974,0
4.681843996047974,0
4.681843996047974,0
4.681843996047974,1
4.681843996047974,0
4.777800559997559,0
4.777800559997559,3
4.777800559997559,0
4.777800559997559,1
4.777800559997559,0
4.777800559997559,0
4.777800559997559,0
4.777800559997559,0
4.777800559997559,0
4.873337984085083,0
4.873337984085083,0
4.873337984085083,0
4.873337984085083,0
4.873337984085083,0
4.873337984085083,0
4.873337984085083,0
4.873337984085083,0
4.873337984085083,0
4.954092979431152,0
4.954092979431152,0
4.954092979431152,0
4.954092979431152,0
4.954092979431152,0
4.954092979431152,1
4.954092979431152,0
4.954092979431152,0
4.954092979431152,0
5.049036502838135,0
5.049036502838135,0
5.049036502838135,0
5.049036502838135,0
5.049036502838135,0
5.049036502838135,0
5.049036502838135,3
5.049036502838135,0
5.049036502838135,0
5.151992559432983,0
5.151992559432983,3
5.151992559432983,0
5.151992559432983,3
5.151992559432983,0
5.151992559432983,0
5.151992559432983,0
5.151992559432983,0
5.151992559432983,0
5.248937368392944,0
5.248937368392944,0
5.248937368392944,1
5.248937368392944,0
5.248937368392944,0
5.248937368392944,0
5.248937368392944,2
5.248937368392944,0
5.248937368392944,0
5.248937368392944,0
5.334367513656616,0
5.334367513656616,0
5.334367513656616,0
5.334367513656616,0
5.334367513656616,0
5.334367513656616,0
5.334367513656616,0
5.334367513656616,0
5.334367513656616,0
5.440105199813843,0
5.440105199813843,1
5.440105199813843,0
5.440105199813843,0
5.440105199813843,0
5.440105199813843,0
5.440105199813843,0
5.440105199813843,0
5.440105199813843,0
5.440105199813843,0
5.539885997772217,1
5.539885997772217,0
5.539885997772217,0
5.539885997772217,0
5.539885997772217,0
5.539885997772217,0
5.539885997772217,1
5.539885997772217,0
5.539885997772217,0
5.63419508934021,0
5.63419508934021,0
5.63419508934021,0
5.63419508934021,0
5.63419508934021,0
5.63419508934021,1
5.63419508934021,0
5.63419508934021,0
5.63419508934021,0
5.63419508934021,0
5.732242822647095,0
5.732242822647095,0
5.732242822647095,0
5.732242822647095,0
5.732242822647095,0
5.732242822647095,1
5.732242822647095,0
5.732242822647095,0
5.732242822647095,0
5.827399253845215,0
5.827399253845215,0
5.827399253845215,1
5.827399253845215,0
5.827399253845215,0
5.827399253845215,0
5.827399253845215,0
5.827399253845215,0
5.827399253845215,0
5.827399253845215,0
5.920031309127808,0
5.920031309127808,0
5.920031309127808,0
5.920031309127808,0
5.920031309127808,0
5.920031309127808,0
5.920031309127808,0
5.920031309127808,0
5.920031309127808,0
6.017176628112793,0
6.017176628112793,0
6.017176628112793,0
6.017176628112793,0
6.017176628112793,0
6.017176628112793,0
6.017176628112793,0
6.017176628112793,0
6.019184827804565,0
6.11015772819519,0
6.11015772819519,0
6.11015772819519,0
6.11015772819519,0
6.11015772819519,0
6.11015772819519,0
6.11015772819519,0
6.11015772819519,0
6.11015772819519,0
6.11015772819519,0
6.206618070602417,0
6.206618070602417,0
6.206618070602417,0
6.206618070602417,0
6.206618070602417,0
6.206618070602417,1
6.206618070602417,0
6.206618070602417,0
6.206618070602417,0
6.300464630126953,1
6.300464630126953,0
6.300464630126953,3
6.300464630126953,0
6.300464630126953,0
6.300464630126953,0
6.300464630126953,2
6.300464630126953,0
6.300464630126953,0
6.3907506465911865,1
6.3907506465911865,1
6.3907506465911865,0
6.3907506465911865,0
6.3907506465911865,0
6.3907506465911865,2
6.3907506465911865,0
6.3907506465911865,0
6.3907506465911865,0
6.486638784408569,0
6.486638784408569,0
6.486638784408569,1
6.486638784408569,0
6.486638784408569,0
6.486638784408569,5
6.486638784408569,3
6.486638784408569,9
6.486638784408569,0
6.486638784408569,0
6.5712971687316895,15
6.5712971687316895,12
6.5712971687316895,4
6.5712971687316895,7
6.5712971687316895,42
6.5712971687316895,60
6.581877708435059,46
6.581877708435059,5
6.581877708435059,1
6.666944742202759,4
6.666944742202759,3
6.666944742202759,0
6.666944742202759,0
6.666944742202759,0
6.666944742202759,0
6.666944742202759,0
6.666944742202759,0
6.666944742202759,2
6.767847299575806,0
6.767847299575806,0
6.767847299575806,0
6.767847299575806,0
6.767847299575806,0
6.767847299575806,0
6.767847299575806,0
6.767847299575806,0
6.767847299575806,0
6.8612329959869385,0
6.8612329959869385,0
6.8612329959869385,1
6.8612329959869385,1
6.863238096237183,1
6.863238096237183,0
6.863238096237183,0
6.863238096237183,0
6.863238096237183,1
6.9530029296875,0
6.9530029296875,0
6.9530029296875,0
6.9530029296875,3
6.9530029296875,0
6.9530029296875,1
6.9530029296875,0
6.9530029296875,0
6.9530029296875,0
6.9530029296875,0
7.0489373207092285,0
7.0489373207092285,0
7.0489373207092285,0
7.0489373207092285,5
7.0489373207092285,45
7.0489373207092285,7
7.0489373207092285,2
7.0489373207092285,0
7.0489373207092285,0
7.149938344955444,0
7.149938344955444,0
7.149938344955444,0
7.149938344955444,0
7.149938344955444,8
7.149938344955444,2
7.149938344955444,0
7.149938344955444,0
7.149938344955444,0
7.149938344955444,1
7.247638702392578,0
7.247638702392578,7
7.247638702392578,0
7.247638702392578,0
7.247638702392578,0
7.247638702392578,0
7.247638702392578,0
7.247638702392578,0
7.247638702392578,0
7.335076093673706,0
7.335076093673706,7
7.335076093673706,0
7.335076093673706,2
7.335076093673706,7
7.335076093673706,6
7.335076093673706,0
7.335076093673706,139
7.335076093673706,139
7.335076093673706,48
7.441467761993408,25
7.441467761993408,29
7.441467761993408,5
7.441467761993408,385
7.441467761993408,7
7.441467761993408,34
7.441467761993408,3
7.441467761993408,131
7.441467761993408,21
7.441467761993408,87
7.54118800163269,627
7.54118800163269,140
7.54118800163269,26
7.54118800163269,68
7.54118800163269,31
7.54118800163269,16
7.54118800163269,100
7.54118800163269,434
7.54118800163269,69
7.636535167694092,41
7.636535167694092,92
7.636535167694092,272
7.636535167694092,266
7.636535167694092,195
7.636535167694092,96
7.636535167694092,27
7.636535167694092,181
7.636535167694092,6
7.636535167694092,207
7.732907772064209,17
7.732907772064209,178
7.732907772064209,84
7.732907772064209,238
7.732907772064209,40
7.732907772064209,194
7.732907772064209,197
7.732907772064209,89
7.732907772064209,25
7.828481674194336,246
7.828481674194336,119
7.828481674194336,228
7.828481674194336,117
7.828481674194336,113
7.828481674194336,193
7.828481674194336,79
7.828481674194336,110
7.828481674194336,50
7.923585414886475,264
7.923585414886475,320
7.923585414886475,60
7.923585414886475,1
7.923585414886475,31
7.923585414886475,67
7.923585414886475,10
7.923585414886475,85
7.923585414886475,187
7.923585414886475,174
8.023208379745483,140
8.023208379745483,8
8.023208379745483,52
8.023208379745483,36
8.023208379745483,95
8.023208379745483,48
8.023208379745483,35
8.023208379745483,134
8.023208379745483,10
8.114219188690186,87
8.114219188690186,54
8.114219188690186,111
8.114219188690186,176
8.114219188690186,193
8.114219188690186,304
8.114219188690186,144
8.114219188690186,114
8.114219188690186,32
8.114219188690186,88
8.209904909133911,7
8.209904909133911,108
8.209904909133911,164
8.209904909133911,105
8.209904909133911,295
8.209904909133911,161
8.209904909133911,5
8.209904909133911,89
8.209904909133911,10
8.209904909133911,37
8.32225751876831,97
8.32225751876831,68
8.32225751876831,56
8.32225751876831,84
8.32225751876831,160
8.32225751876831,187
8.32225751876831,0
8.32225751876831,10
8.32225751876831,59
8.42150616645813,147
8.42150616645813,362
8.42150616645813,14
8.42150616645813,114
8.42150616645813,385
8.42150616645813,70
8.42150616645813,97
8.42150616645813,49
8.42150616645813,40
8.42150616645813,85
8.510239601135254,309
8.510239601135254,214
8.510239601135254,394
8.510239601135254,116
8.510239601135254,203
8.510239601135254,339
8.510239601135254,38
8.510239601135254,186
8.510239601135254,419
8.510239601135254,155
8.622445583343506,27
8.622445583343506,81
8.622445583343506,72
8.622445583343506,138
8.622445583343506,81
8.622445583343506,107
8.622445583343506,247
8.622445583343506,0
8.622445583343506,351
8.622445583343506,362
8.717679977416992,99
8.717679977416992,115
8.717679977416992,56
8.717679977416992,15
8.717679977416992,136
8.717679977416992,299
8.717679977416992,34
8.717679977416992,436
8.717679977416992,16
8.717679977416992,222
8.814289569854736,248
8.814289569854736,115
8.814289569854736,49
8.814289569854736,19
8.814289569854736,123
8.814289569854736,4
8.814289569854736,652
8.814289569854736,40
8.814289569854736,173
8.814289569854736,237
8.926430225372314,118
8.926430225372314,310
8.926430225372314,25
8.926430225372314,246
8.926430225372314,29
8.926430225372314,294
8.926430225372314,117
8.926430225372314,140
8.926430225372314,10
9.029985904693604,186
9.029985904693604,571
9.029985904693604,7
9.029985904693604,25
9.029985904693604,37
9.029985904693604,282
9.029985904693604,15
9.029985904693604,179
9.029985904693604,91
9.029985904693604,217
9.029985904693604,137
9.131802320480347,100
9.131802320480347,349
9.131802320480347,94
9.131802320480347,152
9.131802320480347,183
9.131802320480347,259
9.131802320480347,58
9.131802320480347,404
9.131802320480347,359
9.131802320480347,25
9.232682943344116,146
9.232682943344116,55
9.232682943344116,215
9.232682943344116,78
9.232682943344116,236
9.23318886756897,155
9.23318886756897,194
9.23318886756897,14
9.23318886756897,177
9.328664302825928,784
9.328664302825928,113
9.328664302825928,60
9.328664302825928,43
9.328664302825928,104
9.328664302825928,76
9.328664302825928,71
9.328664302825928,466
9.328664302825928,105
9.328664302825928,118
9.42422103881836,229
9.42422103881836,383
9.42422103881836,156
9.42422103881836,25
9.42422103881836,129
9.42422103881836,61
9.42422103881836,260
9.42422103881836,34
9.42422103881836,46
9.42422103881836,18
9.529730319976807,11
9.529730319976807,232
9.529730319976807,197
9.529730319976807,13
9.529730319976807,116
9.529730319976807,81
9.529730319976807,48
9.529730319976807,180
9.529730319976807,42
9.627262830734253,162
9.627262830734253,148
9.627262830734253,79
9.627262830734253,70
9.627262830734253,24
9.629267930984497,165
9.629267930984497,73
9.629267930984497,328
9.629267930984497,44
9.629267930984497,273
9.71037769317627,217
9.71037769317627,78
9.71037769317627,43
9.71037769317627,131
9.71037769317627,80
9.71037769317627,81
9.71037769317627,42
9.71037769317627,0
9.71037769317627,293
9.806581020355225,45
9.806581020355225,336
9.806581020355225,437
9.806581020355225,190
9.806581020355225,116
9.806581020355225,25
9.806581020355225,445
9.806581020355225,139
9.806581020355225,26
9.806581020355225,51
9.917848587036133,115
9.917848587036133,149
9.917848587036133,109
9.917848587036133,41
9.917848587036133,71
9.917848587036133,87
9.917848587036133,141
9.917848587036133,348
9.917848587036133,133
10.013871669769287,76
10.013871669769287,200
10.013871669769287,45
10.013871669769287,147
10.013871669769287,208
10.013871669769287,150
10.013871669769287,54
10.013871669769287,64
10.013871669769287,140
10.013871669769287,61
10.10903000831604,17
10.10903000831604,73
10.10903000831604,5
10.10903000831604,0
10.10903000831604,14
10.10903000831604,6
10.10903000831604,21
10.10903000831604,28
10.10903000831604,12
10.204586505889893,9
10.204586505889893,53
10.204586505889893,29
10.204586505889893,256
10.204586505889893,61
10.204586505889893,452
10.204586505889893,544
10.204586505889893,354
10.204586505889893,281
10.28364896774292,191
10.28364896774292,140
10.28364896774292,353
10.28364896774292,43
10.28364896774292,131
10.28364896774292,0
10.299577474594116,90
10.299577474594116,14
10.299577474594116,75
10.392777442932129,332
10.392777442932129,33
10.392777442932129,75
10.392777442932129,14
10.394282102584839,9
10.394282102584839,359
10.394282102584839,35
10.394282102584839,8
10.394282102584839,34
10.394282102584839,29
10.489264726638794,70
10.489264726638794,77
10.489264726638794,268
10.489264726638794,79
10.489264726638794,8
10.489264726638794,155
10.489264726638794,39
10.489264726638794,72
10.489264726638794,137
10.588795900344849,6
10.588795900344849,58
10.588795900344849,66
10.588795900344849,5
10.588795900344849,20
10.588795900344849,193
10.588795900344849,31
10.588795900344849,70
10.588795900344849,76
10.588795900344849,3
10.688796043395996,12
10.688796043395996,4
10.688796043395996,30
10.688796043395996,178
10.688796043395996,79
10.688796043395996,27
10.688796043395996,10
10.688796043395996,9
10.688796043395996,77
10.69080138206482,218
10.785832643508911,16
10.785832643508911,116
10.785832643508911,23
10.785832643508911,232
10.785832643508911,1
10.785832643508911,8
10.785832643508911,0
10.785832643508911,0
10.785832643508911,2
10.785832643508911,0
10.887377500534058,3
10.887377500534058,0
10.887377500534058,0
10.887377500534058,0
10.887377500534058,0
10.887377500534058,0
10.887377500534058,0
10.887377500534058,3
10.887377500534058,3
10.986004829406738,1
10.986004829406738,0
10.986004829406738,5
10.986004829406738,1
10.986004829406738,2
10.986004829406738,0
10.986004829406738,0
10.986004829406738,0
10.986004829406738,0
10.986004829406738,0
11.079072713851929,1
11.079072713851929,0
11.079072713851929,1
11.079072713851929,0
11.079072713851929,2
11.079072713851929,0
11.079072713851929,2
11.079072713851929,0
11.079072713851929,0
11.079072713851929,0
11.17831563949585,0
11.17831563949585,0
11.17831563949585,2
11.17831563949585,0
11.17831563949585,0
11.17831563949585,0
11.17831563949585,6
11.17831563949585,0
11.17831563949585,0
11.273846864700317,0
11.273846864700317,0
11.273846864700317,0
11.273846864700317,0
11.27585220336914,0
11.27585220336914,0
11.27585220336914,8
11.27585220336914,0
11.27585220336914,4
11.363459825515747,0
11.363459825515747,1
11.363459825515747,0
11.363459825515747,1
11.363459825515747,5
11.363459825515747,0
11.363459825515747,0
11.363459825515747,0
11.363459825515747,0
11.363459825515747,0
11.458747386932373,0
11.458747386932373,0
11.458747386932373,4
11.458747386932373,0
11.458747386932373,0
11.458747386932373,0
11.458747386932373,0
11.458747386932373,0
11.458747386932373,0
11.55309534072876,0
11.55309534072876,0
11.55309534072876,0
11.55309534072876,4
11.55309534072876,0
11.55309534072876,4
11.55309534072876,0
11.55309534072876,0
11.55309534072876,1
11.55309534072876,0
11.662632942199707,0
11.662632942199707,0
11.662632942199707,0
11.662632942199707,0
11.662632942199707,0
11.662632942199707,18
11.662632942199707,0
11.662632942199707,48
11.662632942199707,20
11.75932502746582,73
11.75932502746582,13
11.75932502746582,23
11.75932502746582,45
11.75932502746582,170
11.75932502746582,46
11.75932502746582,169
11.75932502746582,0
11.75932502746582,0
11.75932502746582,59
11.860326528549194,27
11.860326528549194,12
11.860326528549194,5
11.860326528549194,0
11.860326528549194,0
11.860326528549194,3
11.860326528549194,0
11.860326528549194,1
11.860326528549194,0
11.860326528549194,7
11.959939241409302,13
11.959939241409302,7
11.959939241409302,1
11.959939241409302,0
11.959939241409302,0
11.959939241409302,0
11.959939241409302,18
11.959939241409302,9
11.959939241409302,0
11.959939241409302,4
12.060306549072266,0
12.060306549072266,0
12.060306549072266,0
12.060306549072266,0
12.060306549072266,0
12.060306549072266,0
12.060306549072266,0
12.060306549072266,2
12.060306549072266,0
12.155749797821045,5
12.155749797821045,0
12.155749797821045,0
12.155749797821045,1
12.155749797821045,0
12.155749797821045,3
12.155749797821045,1
12.155749797821045,7
12.155749797821045,0
12.155749797821045,2
12.251923084259033,2
12.251923084259033,6
12.251923084259033,3
12.251923084259033,0
12.251923084259033,0
12.251923084259033,1
12.251923084259033,0
12.251923084259033,0
12.251923084259033,0
12.3497793674469,2
12.3497793674469,1
12.3497793674469,0
12.3497793674469,0
12.3497793674469,0
12.3497793674469,0
12.3497793674469,0
12.3497793674469,0
12.3497793674469,1
12.3497793674469,0
12.448625564575195,0
12.448625564575195,0
12.448625564575195,0
12.448625564575195,0
12.448625564575195,0
12.448625564575195,7
12.448625564575195,1
12.448625564575195,6
12.448625564575195,0
12.448625564575195,0
12.53816032409668,0
12.53816032409668,3
12.53816032409668,0
12.53816032409668,4
12.53816032409668,0
12.53816032409668,0
12.53816032409668,0
12.53816032409668,0
12.53816032409668,0
12.634164571762085,0
12.634164571762085,0
12.634164571762085,0
12.634164571762085,0
12.634164571762085,0
12.634164571762085,0
12.634164571762085,0
12.634164571762085,0
12.636171579360962,0
12.712908267974854,0
12.712908267974854,3
12.712908267974854,0
12.712908267974854,0
12.712908267974854,1
12.712908267974854,0
12.712908267974854,0
12.712908267974854,3
12.712908267974854,13
12.809067726135254,4
12.809067726135254,1
12.809067726135254,3
12.809067726135254,0
12.809067726135254,0
12.809067726135254,0
12.809067726135254,9
12.809067726135254,0
12.809067726135254,4
12.910015344619751,2
12.910015344619751,6
12.910015344619751,6
12.910015344619751,0
12.910015344619751,3
12.910015344619751,0
12.910015344619751,0
12.910015344619751,0
12.910015344619751,0
13.00829029083252,0
13.00829029083252,1
13.00829029083252,6
13.00829029083252,0
13.00829029083252,0
13.00829029083252,0
13.00829029083252,0
13.010295152664185,0
13.010295152664185,0
13.010295152664185,2
13.108728408813477,0
13.108728408813477,0
13.108728408813477,0
13.108728408813477,0
13.108728408813477,4
13.108728408813477,0
13.108728408813477,0
13.108728408813477,0
13.108728408813477,0
13.108728408813477,0
13.205154418945312,0
13.205154418945312,0
13.205154418945312,0
13.205154418945312,1
13.205154418945312,0
13.205154418945312,0
13.205154418945312,0
13.205154418945312,0
13.205154418945312,0
13.308475017547607,0
13.308475017547607,0
13.308475017547607,0
13.308475017547607,0
13.308475017547607,6
13.308475017547607,3
13.308475017547607,0
13.308475017547607,0
13.308475017547607,0
13.308475017547607,2
13.403786420822144,0
13.403786420822144,0
13.403786420822144,3
13.403786420822144,8
13.403786420822144,0
13.403786420822144,0
13.403786420822144,1
13.403786420822144,0
13.403786420822144,0
13.403786420822144,0
13.49146842956543,0
13.49146842956543,0
13.49146842956543,0
13.49146842956543,0
13.49146842956543,6
13.49146842956543,0
13.49146842956543,0
13.49146842956543,0
13.49146842956543,0
13.58681607246399,0
13.58681607246399,0
13.58681607246399,0
13.58681607246399,0
13.58681607246399,4
13.58681607246399,0
13.58681607246399,0
13.58681607246399,0
13.58681607246399,0
13.58681607246399,0
13.69852328300476,0
13.69852328300476,0
13.69852328300476,0
13.69852328300476,0
13.69852328300476,0
13.69852328300476,0
13.69852328300476,0
13.69852328300476,0
13.69852328300476,0
13.69852328300476,0
13.793336629867554,0
13.793336629867554,0
13.793336629867554,0
13.793336629867554,0
13.793336629867554,0
13.793336629867554,1
13.793336629867554,0
13.793336629867554,1
13.793336629867554,2
13.888092279434204,0
13.888092279434204,0
13.888092279434204,0
13.888092279434204,0
13.888092279434204,0
13.888092279434204,3
13.888092279434204,3
13.888092279434204,0
13.888092279434204,0
13.888092279434204,0
13.98811388015747,0
13.98811388015747,0
13.98811388015747,0
13.98811388015747,2
13.98811388015747,0
13.98811388015747,7
13.98811388015747,1
13.98811388015747,0
13.98811388015747,0
14.07882809638977,2
14.07882809638977,0
14.07882809638977,0
14.07882809638977,0
14.07882809638977,1
14.07882809638977,0
14.07882809638977,0
14.07882809638977,4
14.07882809638977,0
14.17584753036499,0
14.17584753036499,2
14.17584753036499,0
14.17584753036499,0
14.17584753036499,0
14.17584753036499,0
14.17584753036499,0
14.17584753036499,0
14.17584753036499,0
14.17584753036499,0
14.256117343902588,1
14.256117343902588,0
14.256117343902588,4
14.256117343902588,0
14.256117343902588,0
14.256117343902588,0
14.256117343902588,0
14.256117343902588,0
14.256117343902588,1
14.350614070892334,0
14.350614070892334,0
14.350614070892334,0
14.350614070892334,0
14.350614070892334,0
14.350614070892334,0
14.350614070892334,0
14.350614070892334,0
14.350614070892334,0
14.446354150772095,3
14.446354150772095,0
14.446354150772095,0
14.446354150772095,0
14.446354150772095,3
14.446354150772095,1
14.446354150772095,0
14.446354150772095,0
14.446354150772095,0
14.551284790039062,15
14.551284790039062,13
14.551284790039062,10
14.551284790039062,11
14.551284790039062,7
14.551284790039062,0
14.551284790039062,5
14.551284790039062,55
14.551284790039062,14
14.637601852416992,22
14.637601852416992,0
14.637601852416992,10
14.637601852416992,0
14.637601852416992,12
14.637601852416992,4
14.637601852416992,28
14.637601852416992,23
14.637601852416992,4
14.637601852416992,0
14.741538524627686,25
14.743543863296509,30
14.743543863296509,0
14.743543863296509,0
14.743543863296509,1
14.743543863296509,1
14.743543863296509,0
14.743543863296509,7
14.743543863296509,0
14.835970878601074,10
14.835970878601074,9
14.835970878601074,0
14.835970878601074,1
14.835970878601074,0
14.835970878601074,0
14.835970878601074,0
14.835970878601074,0
14.835970878601074,0
14.933105945587158,0
14.933105945587158,0
14.933105945587158,0
14.933105945587158,0
14.933105945587158,0
14.933105945587158,0
14.933105945587158,0
14.933105945587158,0
14.933105945587158,40
14.933105945587158,0
15.028768062591553,0
15.028768062591553,0
15.028768062591553,6
15.028768062591553,33
15.028768062591553,75
15.028768062591553,125
15.028768062591553,78
15.028768062591553,3
15.028768062591553,0
15.028768062591553,15
15.12952208518982,2
15.12952208518982,1
15.12952208518982,65
15.12952208518982,15
15.12952208518982,9
15.12952208518982,4
15.12952208518982,1
15.12952208518982,3
15.12952208518982,0
15.225075483322144,6
15.225075483322144,31
15.225075483322144,45
15.225075483322144,7
15.225075483322144,4
15.225075483322144,0
15.225075483322144,0
15.225075483322144,0
15.225075483322144,6
15.225075483322144,0
15.31897234916687,0
15.31897234916687,0
15.31897234916687,0
15.31897234916687,0
15.31897234916687,0
15.31897234916687,0
15.31897234916687,0
15.31897234916687,1
15.31897234916687,0
15.427924156188965,0
15.427924156188965,0
15.427924156188965,0
15.427924156188965,1
15.427924156188965,0
15.427924156188965,0
15.427924156188965,0
15.427924156188965,0
15.427924156188965,0
15.427924156188965,0
15.531191110610962,0
15.531191110610962,0
15.531191110610962,0
15.531191110610962,0
15.531191110610962,0
15.531191110610962,0
15.531191110610962,0
15.531191110610962,0
15.531191110610962,0
15.531191110610962,0
15.531191110610962,0
15.630406618118286,0
15.630406618118286,0
15.630406618118286,0
15.630406618118286,0
15.630406618118286,0
15.630406618118286,0
15.630406618118286,0
15.630406618118286,0
15.630406618118286,0
15.630406618118286,0
15.732337236404419,0
15.732337236404419,0
15.732337236404419,0
15.732337236404419,0
15.732337236404419,0
15.732337236404419,0
15.732337236404419,0
15.732337236404419,0
15.732337236404419,0
15.732337236404419,0
15.827370643615723,0
15.827370643615723,0
15.827370643615723,0
15.827370643615723,0
15.827370643615723,0
15.827370643615723,0
15.827370643615723,2
15.827370643615723,0
15.827370643615723,0
15.928717851638794,0
15.928717851638794,0
15.928717851638794,5
15.928717851638794,0
15.928717851638794,102
15.928717851638794,102
15.928717851638794,1
15.928717851638794,25
15.928717851638794,1
15.928717851638794,2
16.016940355300903,23
16.016940355300903,19
16.016940355300903,5
16.016940355300903,32
16.016940355300903,1
16.016940355300903,5
16.016940355300903,0
16.016940355300903,0
16.016940355300903,11
16.11842632293701,0
16.11842632293701,2
16.11842632293701,22
16.11842632293701,0
16.11842632293701,0
16.11842632293701,13
16.11842632293701,3
16.11842632293701,0
16.11842632293701,0
16.213821411132812,0
16.213821411132812,0
16.213821411132812,0
16.213821411132812,0
16.213821411132812,0
16.213821411132812,0
16.213821411132812,0
16.213821411132812,0
16.213821411132812,2
16.213821411132812,0
16.302730083465576,0
16.302730083465576,0
16.302730083465576,0
16.302730083465576,0
16.302730083465576,0
16.302730083465576,1
16.302730083465576,0
16.302730083465576,5
16.302730083465576,0
16.398133516311646,0
16.398133516311646,0
16.398133516311646,1
16.398133516311646,0
16.398133516311646,48
16.398133516311646,20
16.398133516311646,0
16.398133516311646,0
16.398133516311646,14
16.49409031867981,64
16.49409031867981,201
16.49409031867981,0
16.49409031867981,11
16.49409031867981,0
16.49409031867981,3
16.49409031867981,0
16.49409031867981,0
16.49409031867981,3
16.49409031867981,5
16.588956117630005,0
16.588956117630005,1
16.588956117630005,0
16.588956117630005,0
16.588956117630005,0
16.588956117630005,2
16.588956117630005,0
16.588956117630005,0
16.588956117630005,0
16.679178476333618,0
16.679178476333618,0
16.679178476333618,1
16.679178476333618,0
16.679178476333618,0
16.68435049057007,0
16.68435049057007,0
16.68435049057007,0
16.68435049057007,9
16.77742910385132,6
16.77742910385132,0
16.77742910385132,0
16.77742910385132,0
16.77742910385132,11
16.77742910385132,10
16.77742910385132,36
16.77742910385132,19
16.77742910385132,20
16.87510323524475,0
16.87510323524475,2
16.87510323524475,1
16.87510323524475,0
16.87510323524475,0
16.87510323524475,35
16.87510323524475,162
16.87510323524475,86
16.87510323524475,42
16.87510323524475,77
16.975919485092163,3
16.975919485092163,63
16.975919485092163,119
16.975919485092163,49
16.975919485092163,3
16.977924823760986,376
16.977924823760986,230
16.977924823760986,101
16.977924823760986,261
17.064472198486328,329
17.064472198486328,98
17.064472198486328,54
17.064472198486328,10
17.064472198486328,0
17.064472198486328,474
17.064472198486328,112
17.064472198486328,231
17.064472198486328,184
17.064472198486328,110
17.176462650299072,65
17.176462650299072,22
17.176462650299072,373
17.176462650299072,20
17.176462650299072,165
17.176462650299072,43
17.176462650299072,292
17.176462650299072,22
17.176462650299072,167
17.176462650299072,26
17.27217125892639,775
17.27217125892639,180
17.27217125892639,81
17.27217125892639,103
17.27217125892639,75
17.27217125892639,240
17.27217125892639,122
17.27217125892639,272
17.27217125892639,205
17.27217125892639,504
17.37464165687561,279
17.37464165687561,290
17.37464165687561,138
17.37464165687561,284
17.37464165687561,29
17.37464165687561,88
17.37464165687561,84
17.37464165687561,39
17.37464165687561,123
17.466594457626343,244
17.466594457626343,27
17.466594457626343,153
17.466594457626343,56
17.466594457626343,176
17.466594457626343,161
17.466594457626343,219
17.466594457626343,266
17.466594457626343,128
17.558252573013306,55
17.558252573013306,89
17.558252573013306,546
17.558252573013306,37
17.558252573013306,63
17.558252573013306,85
17.558252573013306,87
17.558252573013306,1
17.558252573013306,55
17.558252573013306,184
17.65333580970764,296
17.65333580970764,123
17.65333580970764,36
17.65333580970764,88
17.65333580970764,205
17.65333580970764,116
17.65333580970764,57
17.65333580970764,9
17.65333580970764,165
17.750918865203857,66
17.750918865203857,15
17.750918865203857,264
17.750918865203857,904
17.750918865203857,42
17.750918865203857,117
17.750918865203857,42
17.750918865203857,226
17.750918865203857,0
17.844342470169067,755
17.844342470169067,122
17.844342470169067,95
17.844342470169067,2
17.844342470169067,248
17.844342470169067,124
17.844342470169067,70
17.844342470169067,149
17.844342470169067,312
17.939785718917847,151
17.939785718917847,218
17.939785718917847,227
17.939785718917847,12
17.939785718917847,79
17.941792011260986,143
17.941792011260986,152
17.941792011260986,26
17.941792011260986,46
17.941792011260986,89
18.034950494766235,10
18.034950494766235,463
18.034950494766235,192
18.034950494766235,178
18.034950494766235,111
18.034950494766235,208
18.034950494766235,44
18.036958932876587,506
18.036958932876587,22
18.13009285926819,175
18.13009285926819,230
18.13009285926819,102
18.13009285926819,88
18.13009285926819,141
18.13009285926819,48
18.13009285926819,111
18.13009285926819,261
18.13009285926819,238
18.22891068458557,50
18.22891068458557,167
18.22891068458557,317
18.22891068458557,83
18.22891068458557,314
18.22891068458557,24
18.22891068458557,0
18.22891068458557,109
18.22891068458557,507
18.22891068458557,257
18.319626331329346,197
18.319626331329346,55
18.319626331329346,79
18.319626331329346,601
18.32335877418518,164
18.32335877418518,289
18.32335877418518,65
18.32335877418518,231
18.32335877418518,5
18.41473913192749,145
18.41473913192749,789
18.41473913192749,39
18.41473913192749,214
18.41473913192749,122
18.41473913192749,33
18.41674518585205,124
18.41674518585205,1
18.41674518585205,557
18.50988745689392,14
18.50988745689392,102
18.50988745689392,75
18.50988745689392,70
18.50988745689392,211
18.50988745689392,17
18.50988745689392,7
18.50988745689392,265
18.50988745689392,2
18.590511322021484,20
18.590511322021484,38
18.590511322021484,51
18.590511322021484,62
18.590511322021484,216
18.590511322021484,83
18.590511322021484,104
18.590511322021484,55
18.590511322021484,74
18.590511322021484,29
18.698218822479248,165
18.698218822479248,76
18.698218822479248,120
18.698218822479248,50
18.698218822479248,340
18.698218822479248,136
18.70022416114807,181
18.70022416114807,440
18.70022416114807,80
18.797820329666138,210
18.797820329666138,74
18.797820329666138,7
18.797820329666138,258
18.797820329666138,404
18.797820329666138,7
18.797820329666138,146
18.797820329666138,249
18.797820329666138,103
18.797820329666138,401
18.893628358840942,6
18.893628358840942,89
18.893628358840942,70
18.893628358840942,3
18.893628358840942,251
18.893628358840942,12
18.893628358840942,329
18.893628358840942,214
18.893628358840942,34
18.998814344406128,284
18.998814344406128,10
18.998814344406128,27
18.998814344406128,293
18.998814344406128,646
19.00081968307495,494
19.00081968307495,109
19.00081968307495,280
19.00081968307495,267
19.00081968307495,131
19.10017704963684,141
19.10017704963684,128
19.10017704963684,65
19.10017704963684,25
19.10017704963684,138
19.10017704963684,458
19.10017704963684,72
19.10017704963684,166
19.10017704963684,251
19.10017704963684,93
19.201396703720093,237
19.201396703720093,324
19.201396703720093,219
19.201396703720093,222
19.201396703720093,135
19.201396703720093,179
19.201396703720093,144
19.201396703720093,196
19.201396703720093,67
19.201396703720093,107
19.30026364326477,440
19.30026364326477,296
19.30026364326477,97
19.30026364326477,17
19.30026364326477,11
19.30026364326477,27
19.30026364326477,88
19.30026364326477,8
19.30026364326477,249
19.302268981933594,1
19.40142822265625,309
19.40142822265625,170
19.40142822265625,50
19.40142822265625,58
19.40142822265625,121
19.40142822265625,178
19.40142822265625,244
19.40142822265625,478
19.40142822265625,280
19.497543811798096,510
19.497543811798096,226
19.497543811798096,310
19.497543811798096,288
19.497543811798096,429
19.497543811798096,244
19.497543811798096,565
19.497543811798096,430
19.497543811798096,274
19.497543811798096,165
19.591939210891724,85
19.591939210891724,12
19.591939210891724,97
19.591939210891724,23
19.591939210891724,110
19.591939210891724,379
19.591939210891724,184
19.591939210891724,209
19.591939210891724,98
19.591939210891724,434
19.687674045562744,182
19.687674045562744,334
19.687674045562744,162
19.687674045562744,335
19.687674045562744,162
19.687674045562744,330
19.687674045562744,206
19.687674045562744,241
19.687674045562744,232
19.794017553329468,42
19.794017553329468,25
19.794017553329468,556
19.794017553329468,660
19.794017553329468,98
19.794017553329468,0
19.794017553329468,423
19.794017553329468,88
19.794017553329468,148
19.794017553329468,522
19.88947105407715,72
19.88947105407715,68
19.88947105407715,115
19.88947105407715,1
19.88947105407715,838
19.88947105407715,215
19.88947105407715,85
19.89457106590271,56
19.89457106590271,315
19.990960359573364,488
19.990960359573364,397
19.990960359573364,0
19.990960359573364,188
19.990960359573364,3
19.990960359573364,269
19.990960359573364,210
19.990960359573364,29
19.990960359573364,37
19.990960359573364,15
20.091801404953003,54
20.091801404953003,2
20.091801404953003,1
20.091801404953003,3
20.091801404953003,21
20.091801404953003,0
20.091801404953003,29
20.091801404953003,0
20.091801404953003,54
20.091801404953003,704
20.191746473312378,48
20.191746473312378,148
20.191746473312378,457
20.191746473312378,251
20.191746473312378,114
20.191746473312378,38
20.191746473312378,0
20.191746473312378,116
20.191746473312378,528
20.191746473312378,14
20.28853964805603,6
20.28853964805603,64
20.28853964805603,56
20.28853964805603,177
20.28853964805603,17
20.28853964805603,287
20.28853964805603,56
20.28853964805603,32
20.28853964805603,7
20.38916540145874,0
20.38916540145874,5
20.38916540145874,96
20.38916540145874,177
20.38916540145874,55
20.38916540145874,23
20.38916540145874,2
20.38916540145874,28
20.38916540145874,593
20.38916540145874,22
20.486769676208496,110
20.486769676208496,3
20.486769676208496,272
20.486769676208496,104
20.486769676208496,17
20.486769676208496,11
20.486769676208496,1
20.486769676208496,20
20.486769676208496,229
20.486769676208496,72
20.587276697158813,27
20.587276697158813,256
20.587276697158813,75
20.587276697158813,78
20.587276697158813,2
20.587276697158813,29
20.587276697158813,7
20.587276697158813,3
20.587276697158813,27
20.6765193939209,94
20.6765193939209,20
20.6765193939209,3
20.6765193939209,0
20.6765193939209,1
20.6765193939209,0
20.6765193939209,5
20.6765193939209,0
20.6765193939209,0
20.6765193939209,0
20.787166833877563,2
20.787166833877563,0
20.787166833877563,0
20.787166833877563,2
20.787166833877563,12
20.787166833877563,0
20.787166833877563,0
20.787166833877563,0
20.787166833877563,0
20.787166833877563,0
20.88392162322998,0
20.88392162322998,0
20.88392162322998,0
20.88392162322998,0
20.88392162322998,0
20.88392162322998,0
20.88392162322998,0
20.88392162322998,0
20.88392162322998,7
20.88392162322998,1
20.990266799926758,3
20.990266799926758,4
20.990266799926758,0
20.990266799926758,0
20.990266799926758,0
20.990266799926758,0
20.990266799926758,4
20.990266799926758,0
20.990266799926758,0
20.990266799926758,0
21.091054439544678,0
21.091054439544678,0
21.091054439544678,0
21.091054439544678,0
21.091054439544678,0
21.091054439544678,0
21.091054439544678,0
21.091054439544678,0
21.091054439544678,5
21.091054439544678,1
21.192363262176514,0
21.192363262176514,0
21.192363262176514,2
21.192363262176514,0
21.192363262176514,0
21.192363262176514,0
21.192363262176514,1
21.192363262176514,0
21.192363262176514,4
21.192363262176514,0
21.289623975753784,21
21.289623975753784,0
21.289623975753784,0
21.289623975753784,0
21.289623975753784,0
21.289623975753784,1
21.289623975753784,5
21.289623975753784,5
21.289623975753784,0
21.289623975753784,3
21.387558460235596,0
21.387558460235596,0
21.387558460235596,2
21.387558460235596,0
21.387558460235596,0
21.387558460235596,4
21.387558460235596,0
21.387558460235596,0
21.387558460235596,0
21.48385238647461,0
21.48385238647461,0
21.48385238647461,3
21.48385238647461,0
21.48385238647461,0
21.48385238647461,0
21.48385238647461,15
21.48385238647461,0
21.48385238647461,2
21.48385238647461,0
21.577208280563354,3
21.577208280563354,0
21.577208280563354,1
21.577208280563354,3
21.577208280563354,0
21.577208280563354,0
21.577208280563354,1
21.577208280563354,0
21.577208280563354,0
21.676940441131592,0
21.676940441131592,0
21.676940441131592,0
21.676940441131592,12
21.676940441131592,0
21.676940441131592,2
21.676940441131592,0
21.676940441131592,6
21.676940441131592,6
21.67894721031189,0
21.771875858306885,0
21.771875858306885,0
21.771875858306885,0
21.771875858306885,0
21.771875858306885,6
21.771875858306885,3
21.771875858306885,1
21.771875858306885,0
21.771875858306885,0
21.86193585395813,0
21.86193585395813,0
21.86193585395813,0
21.86193585395813,0
21.86193585395813,0
21.86193585395813,0
21.86193585395813,0
21.86193585395813,0
21.86193585395813,0
21.95382046699524,0
21.95382046699524,0
21.95382046699524,0
21.95382046699524,0
21.95382046699524,0
21.95382046699524,0
21.95382046699524,0
21.95382046699524,0
21.95382046699524,0
22.045517921447754,0
22.045517921447754,0
22.045517921447754,0
22.045517921447754,1
22.045517921447754,0
22.045517921447754,0
22.045517921447754,0
22.045517921447754,1
22.04752802848816,0
22.134559154510498,1
22.134559154510498,0
22.134559154510498,5
22.134559154510498,0
22.134559154510498,0
22.134559154510498,1
22.134559154510498,1
22.134559154510498,0
22.134559154510498,0
22.231157302856445,0
22.231157302856445,0
22.231157302856445,0
22.231157302856445,0
22.231157302856445,0
22.231157302856445,2
22.231157302856445,0
22.231157302856445,10
22.231157302856445,13
22.231157302856445,0
22.337335348129272,0
22.337335348129272,0
22.337335348129272,0
22.337335348129272,0
22.337335348129272,0
22.337335348129272,0
22.337335348129272,0
22.337335348129272,0
22.337335348129272,0
22.337335348129272,0
22.437301874160767,0
22.437301874160767,0
22.437301874160767,0
22.437301874160767,0
22.437301874160767,0
22.437301874160767,0
22.437301874160767,0
22.437301874160767,0
22.437301874160767,0
22.532188653945923,0
22.532188653945923,1
22.532188653945923,0
22.532188653945923,0
22.532188653945923,0
22.532188653945923,0
22.532188653945923,0
22.532188653945923,12
22.532188653945923,4
22.532188653945923,0
22.626986265182495,0
22.626986265182495,0
22.626986265182495,0
22.626986265182495,0
22.626986265182495,0
22.626986265182495,0
22.626986265182495,0
22.626986265182495,2
22.626986265182495,0
22.626986265182495,1
22.721793174743652,0
22.721793174743652,1
22.721793174743652,0
22.721793174743652,0
22.721793174743652,0
22.721793174743652,0
22.721793174743652,0
22.721793174743652,0
22.721793174743652,0
22.816349506378174,2
22.816349506378174,0
22.816349506378174,0
22.816349506378174,0
22.816349506378174,0
22.816349506378174,0
22.816349506378174,1
22.816349506378174,0
22.816349506378174,0
22.916468381881714,0
22.916468381881714,0
22.916468381881714,0
22.916468381881714,0
22.916468381881714,1
22.916468381881714,0
22.916468381881714,0
22.916468381881714,0
22.916468381881714,0
23.007615327835083,0
23.007615327835083,2
23.007615327835083,0
23.007615327835083,0
23.007615327835083,0
23.007615327835083,0
23.007615327835083,0
23.007615327835083,0
23.007615327835083,0
23.007615327835083,0
23.102295875549316,5
23.102295875549316,0
23.102295875549316,0
23.102295875549316,4
23.102295875549316,0
23.102295875549316,28
23.102295875549316,0
23.102295875549316,40
23.102295875549316,43
23.197630167007446,1
23.197630167007446,1
23.197630167007446,0
23.197630167007446,0
23.197630167007446,2
23.197630167007446,0
23.197630167007446,0
23.197630167007446,0
23.197630167007446,0
23.29480004310608,0
23.29480004310608,0
23.29480004310608,0
23.296809434890747,0
23.296809434890747,0
23.296809434890747,0
23.296809434890747,0
23.296809434890747,0
23.296809434890747,0
23.296809434890747,0
23.391663789749146,0
23.391663789749146,0
23.391663789749146,0
23.391663789749146,0
23.391663789749146,0
23.391663789749146,2
23.391663789749146,0
23.391663789749146,0
23.391663789749146,1
23.483317852020264,0
23.483317852020264,0
23.483317852020264,0
23.483317852020264,0
23.483317852020264,0
23.483317852020264,0
23.483317852020264,2
23.483317852020264,0
23.483317852020264,1
23.579265356063843,0
23.579265356063843,2
23.579265356063843,0
23.579265356063843,0
23.579265356063843,7
23.579265356063843,0
23.579265356063843,0
23.579265356063843,0
23.579265356063843,0
23.579265356063843,0
23.673528909683228,0
23.673528909683228,0
23.673528909683228,0
23.673528909683228,3
23.673528909683228,0
23.673528909683228,0
23.673528909683228,0
23.673528909683228,0
23.673528909683228,0
23.769219398498535,0
23.769219398498535,0
23.769219398498535,0
23.769219398498535,0
23.769219398498535,0
23.769219398498535,0
23.769219398498535,0
23.769219398498535,0
23.769219398498535,0
23.862516164779663,28
23.862516164779663,35
23.862516164779663,6
23.862516164779663,0
23.862516164779663,5
23.862516164779663,0
23.862516164779663,2
23.862516164779663,8
23.862516164779663,17
23.94175410270691,0
23.94175410270691,4
23.94175410270691,5
23.95787239074707,0
23.95787239074707,6
23.95787239074707,16
23.95787239074707,2
23.95787239074707,0
23.95787239074707,0
23.95787239074707,0
24.037309646606445,0
24.037309646606445,1
24.037309646606445,0
24.037309646606445,0
24.037309646606445,0
24.037309646606445,0
24.037309646606445,0
24.037309646606445,0
24.037309646606445,0
24.148009061813354,0
24.148009061813354,0
24.148009061813354,0
24.148009061813354,0
24.148009061813354,0
24.148009061813354,0
24.148009061813354,0
24.148009061813354,0
24.148009061813354,0
24.243669748306274,16
24.243669748306274,26
24.243669748306274,0
24.243669748306274,0
24.243669748306274,6
24.243669748306274,0
24.243669748306274,3
24.243669748306274,5
24.243669748306274,0
24.243669748306274,0
24.347629070281982,16
24.347629070281982,7
24.347629070281982,3
24.347629070281982,0
24.347629070281982,14
24.347629070281982,0
24.3496356010437,0
24.3496356010437,0
24.3496356010437,0
24.3496356010437,0
24.44647717475891,1
24.44647717475891,5
24.44647717475891,0
24.44647717475891,2
24.44647717475891,1
24.44647717475891,1
24.44647717475891,4
24.44647717475891,0
24.44647717475891,0
24.44647717475891,0
24.548336029052734,3
24.548336029052734,0
24.548336029052734,0
24.548336029052734,0
24.548336029052734,0
24.548336029052734,6
24.548336029052734,0
24.548336029052734,0
24.548336029052734,0
24.548336029052734,3
24.64638066291809,0
24.64638066291809,0
24.64638066291809,0
24.64638066291809,0
24.64638066291809,0
24.64638066291809,11
24.64638066291809,2
24.64638066291809,0
24.64638066291809,1
24.64638066291809,0
24.735487937927246,0
24.735487937927246,0
24.735487937927246,3
24.735487937927246,0
24.735487937927246,0
24.735487937927246,0
24.735487937927246,0
24.735487937927246,2
24.735487937927246,0
24.841871738433838,0
24.841871738433838,0
24.841871738433838,0
24.841871738433838,0
24.841871738433838,0
24.841871738433838,0
24.841871738433838,0
24.841871738433838,0
24.841871738433838,0
24.841871738433838,0
24.941964626312256,1
24.941964626312256,0
24.941964626312256,2
24.941964626312256,0
24.941964626312256,0
24.941964626312256,0
24.941964626312256,0
24.941964626312256,0
24.941964626312256,2
24.941964626312256,0
25.037265062332153,0
25.037265062332153,0
25.037265062332153,0
25.037265062332153,0
25.037265062332153,0
25.037265062332153,0
25.037265062332153,0
25.037265062332153,0
25.037265062332153,0
25.133420944213867,0
25.133420944213867,0
25.133420944213867,0
25.133420944213867,1
25.133420944213867,0
25.133420944213867,0
25.133420944213867,0
25.133420944213867,5
25.133420944213867,1
25.133420944213867,1
25.23708987236023,0
25.23708987236023,1
25.23708987236023,0
25.23708987236023,0
25.23708987236023,0
25.23708987236023,2
25.23708987236023,0
25.23708987236023,0
25.23708987236023,0
25.23708987236023,0
25.33456325531006,0
25.33456325531006,0
25.33456325531006,1
25.33456325531006,0
25.33456325531006,0
25.33456325531006,0
25.33456325531006,0
25.33456325531006,0
25.33456325531006,0
25.434584379196167,0
25.434584379196167,0
25.434584379196167,4
25.434584379196167,0
25.434584379196167,0
25.434584379196167,0
25.434584379196167,0
25.434584379196167,0
25.434584379196167,0
25.434584379196167,0
25.53010869026184,0
25.53010869026184,0
25.53010869026184,0
25.53010869026184,0
25.53010869026184,0
25.53010869026184,0
25.53010869026184,0
25.53010869026184,0
25.53010869026184,0
25.53010869026184,0
25.62510061264038,0
25.62510061264038,0
25.62510061264038,0
25.62510061264038,0
25.62510061264038,0
25.62710738182068,0
25.62710738182068,0
25.62710738182068,0
25.62710738182068,0
25.720452070236206,2
25.720452070236206,0
25.720452070236206,0
25.720452070236206,0
25.720452070236206,0
25.720452070236206,0
25.720452070236206,0
25.720452070236206,0
25.720452070236206,1
25.81372046470642,0
25.81372046470642,0
25.81372046470642,0
25.81372046470642,0
25.81372046470642,0
25.81372046470642,0
25.81372046470642,0
25.81372046470642,0
25.81372046470642,0
25.905264616012573,0
25.905264616012573,0
25.905264616012573,0
25.905264616012573,0
25.905264616012573,0
25.905264616012573,0
25.905264616012573,0
25.905264616012573,0
25.905264616012573,0
25.999937534332275,0
25.999937534332275,0
25.999937534332275,0
25.999937534332275,0
25.999937534332275,0
25.999937534332275,0
25.999937534332275,0
26.00194263458252,0
26.00194263458252,0
26.00194263458252,0
26.085073471069336,0
26.085073471069336,0
26.085073471069336,0
26.085073471069336,0
26.085073471069336,0
26.085073471069336,0
26.085073471069336,0
26.085073471069336,0
26.085073471069336,0
26.186200857162476,0
26.186200857162476,0
26.186200857162476,0
26.186200857162476,0
26.186200857162476,0
26.186200857162476,0
26.186200857162476,0
26.186200857162476,0
26.186200857162476,0
26.28064751625061,0
26.28064751625061,0
26.28064751625061,0
26.28064751625061,0
26.28064751625061,0
26.28064751625061,0
26.28064751625061,0
26.28064751625061,0
26.28064751625061,0
26.372382164001465,0
26.372382164001465,0
26.372382164001465,3
26.372382164001465,0
26.372382164001465,0
26.372382164001465,0
26.372382164001465,0
26.372382164001465,0
26.372382164001465,0
26.372382164001465,1
26.471618175506592,0
26.471618175506592,0
26.471618175506592,0
26.471618175506592,0
26.471618175506592,0
26.471618175506592,2
26.471618175506592,0
26.471618175506592,0
26.471618175506592,0
26.566782474517822,16
26.566782474517822,0
26.566782474517822,9
26.566782474517822,0
26.566782474517822,0
26.566782474517822,0
26.566782474517822,0
26.566782474517822,69
26.566782474517822,95
26.659914255142212,94
26.659914255142212,106
26.659914255142212,3
26.659914255142212,35
26.659914255142212,66
26.659914255142212,0
26.659914255142212,0
26.659914255142212,0
26.659914255142212,17
26.737445831298828,0
26.737445831298828,46
26.737445831298828,67
26.753166675567627,6
26.753166675567627,7
26.753166675567627,9
26.753166675567627,0
26.753166675567627,2
26.753166675567627,0
26.753166675567627,1
26.847973823547363,2
26.847973823547363,0
26.847973823547363,0
26.847973823547363,0
26.847973823547363,3
26.847973823547363,0
26.847973823547363,0
26.847973823547363,0
26.847973823547363,0
26.940020322799683,4
26.940020322799683,1
26.940020322799683,1
26.940020322799683,9
26.940020322799683,10
26.940020322799683,3
26.940020322799683,7
26.940020322799683,0
26.940020322799683,2
27.038748502731323,0
27.038748502731323,7
27.038748502731323,22
27.038748502731323,9
27.038748502731323,58
27.038748502731323,0
27.038748502731323,152
27.038748502731323,256
27.038748502731323,76
27.134559869766235,355
27.134559869766235,83
27.134559869766235,99
27.134559869766235,18
27.134559869766235,43
27.134559869766235,250
27.134559869766235,52
27.134559869766235,248
27.134559869766235,94
27.134559869766235,184
27.22847580909729,162
27.22847580909729,108
27.22847580909729,158
27.22847580909729,60
27.22847580909729,398
27.22847580909729,514
27.22847580909729,38
27.22847580909729,88
27.22847580909729,149
27.32354497909546,222
27.32354497909546,323
27.32354497909546,230
27.32354497909546,351
27.32354497909546,79
27.32354497909546,311
27.32354497909546,139
27.32354497909546,49
27.32354497909546,29
27.422724723815918,208
27.422724723815918,156
27.422724723815918,114
27.422724723815918,233
27.422724723815918,231
27.422724723815918,215
27.422724723815918,102
27.422724723815918,279
27.422724723815918,976
27.422724723815918,88
27.513574838638306,258
27.513574838638306,202
27.513574838638306,5
27.513574838638306,117
27.513574838638306,303
27.513574838638306,91
27.513574838638306,250
27.513574838638306,155
27.513574838638306,166
27.513574838638306,67
27.61713671684265,157
27.61713671684265,14
27.61713671684265,133
27.61713671684265,94
27.61713671684265,209
27.61713671684265,243
27.61713671684265,88
27.61713671684265,134
27.61713671684265,14
27.70479726791382,548
27.70479726791382,131
27.70479726791382,420
27.70479726791382,215
27.70479726791382,188
27.70479726791382,276
27.70479726791382,113
27.70479726791382,112
27.70479726791382,388
27.80044722557068,1023
27.80044722557068,149
27.80044722557068,146
27.80044722557068,348
27.80044722557068,8
27.80044722557068,108
27.80044722557068,18
27.80044722557068,209
27.80044722557068,232
27.80044722557068,54
27.91023063659668,313
27.91023063659668,110
27.91023063659668,147
27.91023063659668,55
27.91023063659668,123
27.91023063659668,209
27.91023063659668,70
27.91023063659668,43
27.91023063659668,192
27.91023063659668,351
28.00758409500122,434
28.00758409500122,113
28.00758409500122,151
28.00758409500122,57
28.00758409500122,183
28.00758409500122,3
28.00758409500122,39
28.00758409500122,76
28.00758409500122,36
28.1067795753479,50
28.1067795753479,230
28.1067795753479,247
28.1067795753479,19
28.1067795753479,113
28.1067795753479,197
28.1067795753479,322
28.1067795753479,1023
28.1067795753479,195
28.1067795753479,202
28.199283361434937,28
28.199283361434937,4
28.199283361434937,49
28.199283361434937,9
28.199283361434937,86
28.199283361434937,89
28.199283361434937,437
28.199283361434937,83
28.199283361434937,513
28.294907331466675,165
28.294907331466675,24
28.294907331466675,107
28.294907331466675,276
28.294907331466675,54
28.294907331466675,0
28.294907331466675,155
28.294907331466675,161
28.294907331466675,169
28.294907331466675,853
28.401689767837524,190
28.401689767837524,234
28.401689767837524,138
28.401689767837524,42
28.401689767837524,128
28.40369486808777,65
28.40369486808777,159
28.40369486808777,140
28.40369486808777,114
28.40369486808777,314
28.484979391098022,63
28.484979391098022,241
28.484979391098022,165
28.484979391098022,1007
28.484979391098022,240
28.484979391098022,211
28.484979391098022,143
28.484979391098022,370
28.484979391098022,472
28.5915265083313,1023
28.5915265083313,185
28.5915265083313,138
28.5915265083313,285
28.5915265083313,462
28.5915265083313,55
28.5915265083313,280
28.5915265083313,621
28.5915265083313,103
28.692261695861816,388
28.692261695861816,271
28.692261695861816,166
28.692261695861816,398
28.692261695861816,137
28.694267511367798,181
28.694267511367798,118
28.694267511367798,541
28.694267511367798,366
28.694267511367798,362
28.787978649139404,271
28.787978649139404,274
28.787978649139404,153
28.787978649139404,312
28.787978649139404,0
28.787978649139404,1023
28.787978649139404,206
28.787978649139404,139
28.787978649139404,144
28.88505268096924,521
28.88505268096924,122
28.88505268096924,31
28.88505268096924,106
28.88505268096924,267
28.88505268096924,75
28.88505268096924,579
28.88505268096924,1020
28.88505268096924,68
28.88505268096924,54
28.98833394050598,324
28.98833394050598,318
28.98833394050598,178
28.98833394050598,691
28.98833394050598,408
28.98833394050598,133
28.98833394050598,13
28.98833394050598,159
28.98833394050598,193
28.98833394050598,696
29.08938717842102,207
29.08938717842102,55
29.08938717842102,220
29.08938717842102,505
29.08938717842102,55
29.08938717842102,697
29.08938717842102,153
29.08938717842102,316
29.08938717842102,398
29.08938717842102,409
29.19502305984497,205
29.19502305984497,3
29.19502305984497,403
29.19502305984497,92
29.19502305984497,62
29.19502305984497,107
29.19502305984497,32
29.19502305984497,32
29.19502305984497,381
29.19502305984497,368
29.297463417053223,285
29.297463417053223,16
29.297463417053223,123
29.297463417053223,188
29.297463417053223,212
29.297463417053223,521
29.297463417053223,426
29.297463417053223,413
29.297463417053223,167
29.297463417053223,211
29.399417877197266,122
29.399417877197266,93
29.399417877197266,84
29.399417877197266,592
29.399417877197266,165
29.399417877197266,155
29.399417877197266,7
29.399417877197266,139
29.399417877197266,0
29.399417877197266,103
29.487069129943848,157
29.487069129943848,112
29.487069129943848,74
29.487069129943848,192
29.487069129943848,0
29.487069129943848,31
29.487069129943848,291
29.487069129943848,355
29.487069129943848,146
29.487069129943848,234
29.601808071136475,20
29.601808071136475,171
29.601808071136475,62
29.601808071136475,287
29.601808071136475,690
29.601808071136475,3
29.601808071136475,42
29.601808071136475,123
29.601808071136475,392
29.601808071136475,72
29.694458723068237,265
29.694458723068237,97
29.694458723068237,244
29.694458723068237,26
29.694458723068237,559
29.694458723068237,138
29.694458723068237,261
29.694458723068237,439
29.694458723068237,8
29.694458723068237,74
29.805825233459473,41
29.805825233459473,83
29.805825233459473,118
29.805825233459473,264
29.805825233459473,512
29.805825233459473,146
29.805825233459473,402
29.805825233459473,17
29.805825233459473,131
29.805825233459473,778
29.90139079093933,217
29.90139079093933,521
29.90139079093933,309
29.90139079093933,20
29.90139079093933,509
29.90139079093933,108
29.90139079093933,7
29.90139079093933,253
29.90139079093933,144
29.90139079093933,388
30.005873918533325,155
30.005873918533325,518
30.005873918533325,137
30.005873918533325,289
30.005873918533325,487
30.005873918533325,404
30.005873918533325,42
30.005873918533325,75
30.005873918533325,53
30.092806339263916,0
30.092806339263916,23
30.092806339263916,3
30.092806339263916,5
30.092806339263916,9
30.092806339263916,1
30.092806339263916,13
30.092806339263916,54
30.092806339263916,13
30.18772315979004,188
30.18772315979004,81
30.18772315979004,445
30.18772315979004,167
30.18772315979004,142
30.18772315979004,509
30.18772315979004,337
30.18772315979004,160
30.18772315979004,33
30.18772315979004,246
30.28330898284912,56
30.28330898284912,87
30.28330898284912,176
30.28330898284912,44
30.28330898284912,211
30.28330898284912,90
30.28330898284912,50
30.28330898284912,416
30.28330898284912,342
30.38665533065796,9
30.38665533065796,93
30.38665533065796,4
30.38665533065796,19
30.38665533065796,24
30.38665533065796,0
30.38665533065796,560
30.38665533065796,2
30.38665533065796,21
30.48275852203369,281
30.48275852203369,41
30.48275852203369,22
30.48275852203369,82
30.48275852203369,35
30.48275852203369,31
30.48275852203369,65
30.48275852203369,203
30.48275852203369,17
30.48275852203369,131
30.580037593841553,2
30.580037593841553,92
30.580037593841553,26
30.580037593841553,9
30.580037593841553,73
30.580037593841553,95
30.580037593841553,46
30.580037593841553,12
30.580037593841553,116
30.664860248565674,96
30.664860248565674,325
30.664860248565674,70
30.664860248565674,51
30.664860248565674,112
30.664860248565674,5
30.664860248565674,38
30.664860248565674,21
30.664860248565674,26
30.664860248565674,28
30.75974202156067,0
30.75974202156067,0
30.75974202156067,13
30.75974202156067,1
30.75974202156067,0
30.75974202156067,0
30.75974202156067,0
30.75974202156067,0
30.75974202156067,0
30.854894876480103,0
30.854894876480103,0
30.854894876480103,10
30.854894876480103,14
30.854894876480103,18
30.854894876480103,5
30.854894876480103,15
30.854894876480103,0
30.854894876480103,14
30.950519561767578,0
30.950519561767578,10
30.950519561767578,3
30.950519561767578,1
30.950519561767578,9
30.950519561767578,0
30.950519561767578,2
30.950519561767578,0
30.950519561767578,125
30.950519561767578,43
31.06431221961975,1
31.06431221961975,4
31.06431221961975,0
31.06431221961975,3
31.06431221961975,5
31.06431221961975,0
31.06431221961975,5
31.06431221961975,0
31.06431221961975,0
31.06431221961975,22
31.168017625808716,13
31.168017625808716,52
31.168017625808716,5
31.168017625808716,5
31.168017625808716,5
31.168017625808716,0
31.168017625808716,0
31.168017625808716,0
31.168017625808716,1
31.168017625808716,6
31.267435550689697,4
31.267435550689697,0
31.26876711845398,0
31.26876711845398,7
31.26876711845398,0
31.26876711845398,0
31.26876711845398,0
31.26876711845398,3
31.26876711845398,0
31.26876711845398,0
31.36262321472168,0
31.36262321472168,0
31.36262321472168,0
31.36262321472168,0
31.36262321472168,2
31.36262321472168,0
31.36262321472168,0
31.36262321472168,0
31.36262321472168,0
31.36262321472168,0
31.458231449127197,1
31.458231449127197,0
31.458231449127197,0
31.458231449127197,7
31.458231449127197,0
31.458231449127197,3
31.458231449127197,0
31.458231449127197,0
31.458231449127197,0
31.553980588912964,0
31.553980588912964,2
31.553980588912964,1
31.553980588912964,0
31.553980588912964,0
31.553980588912964,0
31.553980588912964,0
31.553980588912964,1
31.553980588912964,0
31.65086054801941,0
31.65086054801941,2
31.65086054801941,0
31.65086054801941,0
31.65086054801941,0
31.65086054801941,0
31.65086054801941,0
31.65086054801941,0
31.65086054801941,0
31.65086054801941,0
31.74514675140381,0
31.74514675140381,0
31.747155904769897,0
31.747155904769897,0
31.747155904769897,0
31.747155904769897,0
31.747155904769897,2
31.747155904769897,0
31.747155904769897,0
31.840744972229004,0
31.840744972229004,0
31.840744972229004,3
31.840744972229004,0
31.840744972229004,0
31.840744972229004,0
31.840744972229004,2
31.840744972229004,0
31.840744972229004,0
31.945485591888428,0
31.945485591888428,1
31.945485591888428,0
31.945485591888428,0
31.945485591888428,0
31.945485591888428,11
31.945485591888428,0
31.945485591888428,0
31.945485591888428,0
31.945485591888428,0
31.945485591888428,0
32.04714894294739,0
32.04714894294739,0
32.04714894294739,1
32.04714894294739,4
32.04714894294739,0
32.04714894294739,2
32.04714894294739,0
32.04714894294739,0
32.04714894294739,0
32.04714894294739,0
32.14175200462341,0
32.14175200462341,0
32.14175200462341,0
32.14175200462341,0
32.14175200462341,1
32.14175200462341,0
32.14175200462341,3
32.14175200462341,0
32.14175200462341,0
32.2372522354126,0
32.2372522354126,0
32.2372522354126,0
32.2372522354126,1
32.2372522354126,0
32.2372522354126,1
32.2372522354126,1
32.2372522354126,1
32.2372522354126,0
32.2372522354126,2
32.343289852142334,0
32.343289852142334,0
32.343289852142334,0
32.343289852142334,0
32.343289852142334,1
32.343289852142334,1
32.343289852142334,0
32.34840106964111,1
32.34840106964111,0
32.34840106964111,0
32.439645290374756,0
32.439645290374756,0
32.439645290374756,3
32.439645290374756,0
32.439645290374756,0
32.439645290374756,1
32.439645290374756,1
32.439645290374756,0
32.439645290374756,0
32.53509068489075,3
32.53509068489075,0
32.53509068489075,0
32.53509068489075,0
32.53509068489075,3
32.53509068489075,0
32.53509068489075,2
32.53509068489075,13
32.53509068489075,9
32.53509068489075,0
32.62932085990906,0
32.62932085990906,0
32.62932085990906,0
32.62932085990906,0
32.62932085990906,5
32.62932085990906,1
32.62932085990906,0
32.62932085990906,0
32.62932085990906,8
32.72398138046265,0
32.72398138046265,27
32.72398138046265,1
32.72398138046265,0
32.72398138046265,0
32.72398138046265,0
32.72398138046265,4
32.72398138046265,0
32.72398138046265,0
32.82372522354126,0
32.82372522354126,0
32.82372522354126,1
32.82372522354126,5
32.82372522354126,0
32.82372522354126,0
32.82372522354126,0
32.82372522354126,1
32.82372522354126,0
32.82372522354126,3
32.92170715332031,0
32.92170715332031,0
32.92170715332031,0
32.92170715332031,0
32.92170715332031,0
32.92170715332031,0
32.92170715332031,0
32.92170715332031,7
32.92170715332031,0
32.92170715332031,0
33.020665884017944,0
33.020665884017944,0
33.020665884017944,0
33.020665884017944,0
33.020665884017944,0
33.020665884017944,0
33.020665884017944,0
33.020665884017944,0
33.020665884017944,0
33.11233329772949,7
33.11233329772949,1
33.11233329772949,0
33.11233329772949,0
33.11233329772949,0
33.11233329772949,0
33.11233329772949,0
33.11233329772949,0
33.11233329772949,0
33.11233329772949,0
33.20796847343445,0
33.20796847343445,0
33.20796847343445,0
33.20796847343445,0
33.20796847343445,0
33.20796847343445,4
33.20796847343445,0
33.20796847343445,0
33.20796847343445,0
33.20796847343445,0
33.320836544036865,0
33.320836544036865,0
33.320836544036865,0
33.320836544036865,2
33.320836544036865,0
33.320836544036865,0
33.320836544036865,0
33.320836544036865,0
33.320836544036865,0
33.320836544036865,1
33.41447448730469,0
33.41447448730469,0
33.41447448730469,0
33.41447448730469,1
33.41447448730469,0
33.41447448730469,2
33.41447448730469,1
33.41447448730469,0
33.41447448730469,0
33.51001262664795,0
33.51001262664795,0
33.51001262664795,0
33.51001262664795,0
33.51001262664795,0
33.51001262664795,0
33.51001262664795,0
33.51001262664795,0
33.51001262664795,0
33.51001262664795,0
33.60767960548401,0
33.60767960548401,0
33.60767960548401,0
33.60767960548401,0
33.60767960548401,0
33.60767960548401,0
33.60767960548401,0
33.60767960548401,0
33.60767960548401,0
33.6854887008667,0
33.6854887008667,0
33.70162224769592,0
33.70162224769592,0
33.70162224769592,0
33.70162224769592,0
33.70162224769592,0
33.70162224769592,0
33.70162224769592,0
33.79612755775452,0
33.79612755775452,0
33.79612755775452,0
33.79612755775452,0
33.79612755775452,0
33.79612755775452,0
33.79612755775452,0
33.79612755775452,0
33.79612755775452,0
33.79612755775452,0
33.891170501708984,0
33.891170501708984,0
33.891170501708984,0
33.89318513870239,1
33.89318513870239,0
33.89318513870239,0
33.89318513870239,0
33.89318513870239,0
33.89318513870239,0
33.981709718704224,0
33.981709718704224,0
33.981709718704224,0
33.981709718704224,0
33.981709718704224,0
33.981709718704224,0
33.981709718704224,0
33.981709718704224,0
33.981709718704224,0
34.06617307662964,0
34.06617307662964,0
34.06617307662964,0
34.06617307662964,1
34.06617307662964,0
34.06617307662964,0
34.06617307662964,0
34.06617307662964,0
34.06617307662964,0
34.16163444519043,0
34.16163444519043,1
34.16163444519043,0
34.16163444519043,0
34.16163444519043,0
34.16163444519043,0
34.16163444519043,0
34.16163444519043,0
34.16163444519043,0
34.16163444519043,0
34.25686311721802,0
34.25686311721802,0
34.25686311721802,0
34.25686311721802,0
34.25686311721802,0
34.25686311721802,0
34.25686311721802,0
34.25686311721802,0
34.25686311721802,0
34.36006999015808,0
34.36006999015808,0
34.36006999015808,0
34.36006999015808,0
34.36006999015808,0
34.36006999015808,0
34.36006999015808,2
34.36006999015808,0
34.36006999015808,5
34.452725648880005,0
34.452725648880005,2
34.452725648880005,0
34.452725648880005,0
34.452725648880005,0
34.452725648880005,0
34.452725648880005,6
34.452725648880005,0
34.452725648880005,0
34.54275035858154,0
34.54275035858154,0
34.54275035858154,0
34.54275035858154,0
34.54275035858154,0
34.54275035858154,0
34.54275035858154,0
34.54275035858154,0
34.54275035858154,0
34.54275035858154,0
34.64303112030029,0
34.64303112030029,0
34.64303112030029,0
34.64303112030029,0
34.64303112030029,2
34.64303112030029,0
34.64303112030029,0
34.64303112030029,0
34.64303112030029,2
34.73588967323303,0
34.73588967323303,0
34.73588967323303,0
34.73588967323303,0
34.73588967323303,0
34.73588967323303,4
34.73588967323303,5
34.73588967323303,0
34.73588967323303,0
34.83271646499634,5
34.83271646499634,3
34.83271646499634,0
34.83271646499634,8
34.83271646499634,0
34.83271646499634,3
34.83271646499634,1
34.83271646499634,9
34.83271646499634,12
34.92570233345032,21
34.92570233345032,53
34.92570233345032,11
34.92570233345032,26
34.92570233345032,5
34.92570233345032,0
34.92570233345032,0
34.92570233345032,5
34.92570233345032,8
34.92570233345032,0
35.021892786026,0
35.021892786026,0
35.021892786026,0
35.021892786026,1
35.021892786026,0
35.021892786026,0
35.021892786026,0
35.02262616157532,0
35.02262616157532,19
35.101438999176025,18
35.101438999176025,0
35.101438999176025,0
35.101438999176025,23
35.101438999176025,21
35.101438999176025,208
35.101438999176025,0
35.101438999176025,9
35.101438999176025,0
35.195926904678345,6
35.195926904678345,0
35.195926904678345,0
35.195926904678345,0
35.195926904678345,0
35.195926904678345,0
35.195926904678345,0
35.195926904678345,0
35.195926904678345,8
35.195926904678345,0
35.307045698165894,37
35.307045698165894,93
35.307045698165894,31
35.307045698165894,6
35.307045698165894,4
35.307045698165894,2
35.307045698165894,0
35.307045698165894,0
35.307045698165894,0
35.307045698165894,0
35.402018547058105,0
35.402018547058105,0
35.402018547058105,0
35.402018547058105,0
35.402018547058105,8
35.402018547058105,3
35.402018547058105,2
35.402018547058105,0
35.402018547058105,0
35.51241898536682,0
35.51241898536682,0
35.51241898536682,7
35.51241898536682,2
35.51241898536682,0
35.51241898536682,0
35.51241898536682,0
35.51241898536682,0
35.51442575454712,0
35.51442575454712,1
35.61699891090393,0
35.61699891090393,0
35.61699891090393,0
35.61699891090393,0
35.61699891090393,3
35.61699891090393,0
35.61699891090393,0
35.61699891090393,0
35.61699891090393,0
35.61699891090393,0
35.61699891090393,0
35.718798875808716,0
35.718798875808716,1
35.718798875808716,0
35.718798875808716,0
35.718798875808716,0
35.720486640930176,2
35.720486640930176,0
35.720486640930176,2
35.720486640930176,0
35.720486640930176,2
35.81343173980713,0
35.81343173980713,0
35.81343173980713,0
35.81343173980713,0
35.81343173980713,0
35.81343173980713,0
35.81343173980713,0
35.81343173980713,0
35.81343173980713,0
35.81343173980713,0
35.90967559814453,0
35.90967559814453,0
35.90967559814453,0
35.90967559814453,0
35.90967559814453,0
35.90967559814453,0
35.90967559814453,0
35.90967559814453,0
35.90967559814453,0
35.90967559814453,0
36.02089548110962,0
36.02089548110962,0
36.02089548110962,0
36.02089548110962,0
36.02089548110962,0
36.02089548110962,0
36.02089548110962,0
36.02089548110962,0
36.02089548110962,0
36.12329173088074,0
36.12329173088074,0
36.12329173088074,0
36.12329173088074,0
36.12329173088074,1
36.12329173088074,0
36.12329173088074,0
36.12329173088074,0
36.12329173088074,0
36.12329173088074,0
36.22401809692383,0
36.22401809692383,0
36.22401809692383,0
36.22401809692383,2
36.22401809692383,0
36.22401809692383,0
36.22401809692383,0
36.22401809692383,0
36.226022243499756,0
36.226022243499756,0
36.32284188270569,3
36.32284188270569,0
36.32284188270569,0
36.32284188270569,1
36.32284188270569,0
36.32284188270569,0
36.32284188270569,0
36.32284188270569,0
36.32284188270569,0
36.32284188270569,3
36.420323848724365,0
36.420323848724365,3
36.420323848724365,0
36.420323848724365,0
36.420323848724365,0
36.420323848724365,0
36.420323848724365,0
36.420323848724365,0
36.420323848724365,0
36.420323848724365,4
36.52825903892517,0
36.52825903892517,0
36.52825903892517,0
36.52825903892517,0
36.52825903892517,0
36.52825903892517,0
36.52825903892517,0
36.52825903892517,0
36.52825903892517,0
36.52825903892517,0
36.63033437728882,1
36.63033437728882,0
36.63033437728882,0
36.63033437728882,0
36.63033437728882,1
36.63033437728882,0
36.63033437728882,0
36.63033437728882,0
36.63033437728882,0
36.63033437728882,0
36.72967195510864,3
36.72967195510864,33
36.72967195510864,0
36.72967195510864,1
36.72967195510864,0
36.72967195510864,4
36.72967195510864,0
36.72967195510864,0
36.72967195510864,0
36.72967195510864,3
36.822835206985474,65
36.822835206985474,53
36.822835206985474,0
36.822835206985474,0
36.822835206985474,6
36.822835206985474,1
36.822835206985474,0
36.822835206985474,0
36.822835206985474,0
36.92138457298279,0
36.92138457298279,63
36.92138457298279,162
36.92138457298279,8
36.92138457298279,1
36.92138457298279,1
36.92138457298279,0
36.92138457298279,0
36.92138457298279,0
36.92138457298279,14
37.00431489944458,0
37.00431489944458,3
37.00431489944458,0
37.00431489944458,2
37.00431489944458,0
37.00431489944458,2
37.00431489944458,0
37.00431489944458,0
37.00431489944458,0
37.11598348617554,0
37.11598348617554,0
37.11598348617554,0
37.11598348617554,1
37.11598348617554,0
37.11598348617554,0
37.11598348617554,7
37.11598348617554,78
37.11598348617554,0
37.11598348617554,137
37.21143102645874,5
37.21143102645874,29
37.21143102645874,44
37.21143102645874,73
37.21143102645874,38
37.21143102645874,0
37.21143102645874,68
37.21143102645874,25
37.21143102645874,3
37.31271290779114,110
37.31271290779114,0
37.31271290779114,151
37.31271290779114,6
37.31271290779114,326
37.31271290779114,242
37.31271290779114,325
37.31271290779114,177
37.31271290779114,130
37.31271290779114,234
37.41371202468872,97
37.41371202468872,98
37.41371202468872,65
37.41371202468872,34
37.41371202468872,78
37.41371202468872,73
37.415717124938965,234
37.415717124938965,20
37.415717124938965,10
37.415717124938965,22
37.51173257827759,177
37.51173257827759,562
37.51173257827759,359
37.51173257827759,340
37.51173257827759,149
37.51173257827759,481
37.51173257827759,94
37.51173257827759,52
37.51173257827759,56
37.51173257827759,90
37.620633602142334,96
37.620633602142334,91
37.620633602142334,38
37.620633602142334,53
37.620633602142334,291
37.620633602142334,342
37.620633602142334,248
37.620633602142334,37
37.620633602142334,155
37.620633602142334,248
37.72447490692139,85
37.72447490692139,82
37.72447490692139,3
37.72447490692139,28
37.72447490692139,212
37.72447490692139,231
37.72447490692139,74
37.72447490692139,175
37.72447490692139,24
37.72447490692139,14
37.819679975509644,146
37.819679975509644,14
37.819679975509644,10
37.819679975509644,14
37.82168483734131,217
37.82168483734131,46
37.82168483734131,338
37.82168483734131,10
37.82168483734131,58
37.82168483734131,508
37.908684492111206,57
37.908684492111206,49
37.908684492111206,32
37.908684492111206,54
37.908684492111206,889
37.908684492111206,5
37.908684492111206,26
37.908684492111206,38
37.908684492111206,343
38.00422382354736,668
38.00422382354736,81
38.00422382354736,988
38.00422382354736,37
38.00422382354736,164
38.00422382354736,15
38.00422382354736,21
38.00422382354736,186
38.00422382354736,28
38.11015748977661,381
38.11015748977661,516
38.11015748977661,55
38.11015748977661,147
38.11015748977661,7
38.11015748977661,69
38.11015748977661,33
38.11015748977661,35
38.112163066864014,323
38.112163066864014,710
38.19447445869446,91
38.19447445869446,36
38.19447445869446,28
38.19447445869446,82
38.19447445869446,306
38.19447445869446,80
38.19447445869446,101
38.19447445869446,368
38.19447445869446,14
38.19447445869446,78
38.289862632751465,48
38.289862632751465,205
38.289862632751465,227
38.289862632751465,1
38.289862632751465,24
38.289862632751465,26
38.289862632751465,17
38.289862632751465,96
38.289862632751465,119
38.386096715927124,21
38.386096715927124,274
38.386096715927124,0
38.386096715927124,110
38.386096715927124,130
38.386096715927124,42
38.386096715927124,46
38.386096715927124,64
38.386096715927124,139
38.49612045288086,150
38.49612045288086,219
38.49612045288086,236
38.49612045288086,63
38.49612045288086,47
38.49612045288086,151
38.49612045288086,32
38.49612045288086,112
38.49612045288086,53
38.49612045288086,148
38.591875076293945,78
38.591875076293945,119
38.591875076293945,67
38.591875076293945,63
38.591875076293945,178
38.591875076293945,18
38.591875076293945,54
38.591875076293945,3
38.591875076293945,12
38.68993306159973,174
38.68993306159973,59
38.68993306159973,190
38.68993306159973,303
38.68993306159973,372
38.68993306159973,357
38.68993306159973,58
38.69193959236145,7
38.69193959236145,62
38.69193959236145,248
38.79335641860962,87
38.79335641860962,78
38.79335641860962,246
38.79335641860962,65
38.79335641860962,36
38.79335641860962,459
38.79335641860962,178
38.79335641860962,177
38.79335641860962,505
38.79335641860962,493
38.8939106464386,46
38.8939106464386,380
38.8939106464386,208
38.8939106464386,100
38.8939106464386,53
38.895916223526,122
38.895916223526,360
38.895916223526,516
38.895916223526,273
38.895916223526,158
38.99723744392395,198
38.99723744392395,280
38.99723744392395,86
38.99723744392395,692
38.99723744392395,78
38.99723744392395,232
38.99723744392395,188
38.99723744392395,395
38.99723744392395,23
38.99723744392395,181
39.099504709243774,646
39.099504709243774,74
39.099504709243774,298
39.099504709243774,310
39.099504709243774,131
39.099504709243774,11
39.099504709243774,1
39.099504709243774,63
39.099504709243774,23
39.099504709243774,279
39.19511580467224,406
39.19511580467224,73
39.19511580467224,552
39.19511580467224,16
39.19511580467224,0
39.19511580467224,18
39.19511580467224,30
39.19511580467224,50
39.19511580467224,64
39.19511580467224,188
39.29009509086609,341
39.29009509086609,108
39.29009509086609,230
39.29009509086609,46
39.29009509086609,143
39.29009509086609,603
39.29009509086609,533
39.29009509086609,288
39.29009509086609,278
39.29009509086609,36
39.403282165527344,135
39.40528750419617,234
39.40528750419617,95
39.40528750419617,63
39.40528750419617,146
39.40528750419617,187
39.40528750419617,73
39.40528750419617,3
39.40528750419617,453
39.49691653251648,262
39.49691653251648,51
39.49691653251648,10
39.49691653251648,221
39.49691653251648,275
39.49691653251648,351
39.49691653251648,45
39.49691653251648,195
39.49691653251648,530
39.49691653251648,72
39.592458963394165,95
39.592458963394165,55
39.592458963394165,437
39.592458963394165,147
39.592458963394165,70
39.592458963394165,447
39.592458963394165,0
39.592458963394165,469
39.592458963394165,18
39.592458963394165,267
39.70314931869507,86
39.70314931869507,487
39.70314931869507,119
39.70314931869507,212
39.70314931869507,25
39.70314931869507,342
39.70314931869507,168
39.70314931869507,145
39.70314931869507,341
39.70314931869507,94
39.79867672920227,25
39.79867672920227,554
39.79867672920227,16
39.79867672920227,280
39.79867672920227,50
39.79867672920227,8
39.79867672920227,39
39.79867672920227,74
39.79867672920227,57
39.79867672920227,605
39.893157720565796,55
39.893157720565796,121
39.893157720565796,201
39.893157720565796,448
39.893157720565796,201
39.893157720565796,74
39.893157720565796,127
39.893157720565796,28
39.893157720565796,914
39.893157720565796,81
40.005005836486816,129
40.005005836486816,430
40.005005836486816,105
40.005005836486816,300
40.005005836486816,253
40.005005836486816,27
40.005005836486816,247
40.005005836486816,168
40.005005836486816,614
40.09996008872986,446
40.09996008872986,22
40.09996008872986,21
40.09996008872986,223
40.09996008872986,248
40.09996008872986,360
40.09996008872986,205
40.09996008872986,187
40.09996008872986,566
40.09996008872986,37
40.2090744972229,1021
40.2090744972229,5
40.2090744972229,238
40.2090744972229,69
40.2090744972229,373
40.2090744972229,273
40.2090744972229,17
40.2090744972229,65
40.2090744972229,0
40.2090744972229,7
40.30868601799011,3
40.30868601799011,20
40.30868601799011,15
40.30868601799011,15
40.30868601799011,10
40.30868601799011,3
40.30868601799011,4
40.30868601799011,0
40.30868601799011,0
40.30868601799011,5
40.40257382392883,0
40.40257382392883,9
40.40257382392883,21
40.40257382392883,1
40.40257382392883,1
40.40257382392883,33
40.40257382392883,30
40.40257382392883,9
40.40257382392883,3
40.40257382392883,0
40.499645709991455,8
40.499645709991455,0
40.499645709991455,0
40.499645709991455,0
40.499645709991455,0
40.499645709991455,12
40.499645709991455,0
40.499645709991455,0
40.499645709991455,0
40.499645709991455,0
40.61342000961304,16
40.61342000961304,2
40.61342000961304,24
40.61342000961304,6
40.61342000961304,0
40.61342000961304,0
40.61342000961304,0
40.61342000961304,0
40.61342000961304,0
40.61342000961304,1
40.71103000640869,3
40.71103000640869,0
40.71103000640869,1
40.71103000640869,0
40.713035345077515,0
40.713035345077515,0
40.713035345077515,0
40.713035345077515,0
40.713035345077515,0
40.713035345077515,0
40.81308913230896,0
40.81308913230896,0
40.81308913230896,0
40.81308913230896,0
40.81308913230896,0
40.81308913230896,0
40.81308913230896,0
40.81308913230896,1
40.81308913230896,1
40.815096855163574,3
40.911396503448486,0
40.911396503448486,0
40.911396503448486,0
40.911396503448486,0
40.911396503448486,0
40.911396503448486,0
40.911396503448486,0
40.911396503448486,16
40.911396503448486,3
40.911396503448486,0
41.00792360305786,0
41.00792360305786,3
41.00792360305786,0
41.00792360305786,2
41.00792360305786,0
41.00792360305786,0
41.00792360305786,0
41.00792360305786,0
41.00792360305786,0
41.10183811187744,4
41.10183811187744,0
41.10183811187744,54
41.10183811187744,16
41.10183811187744,9
41.10183811187744,0
41.10183811187744,0
41.10183811187744,0
41.10183811187744,0
41.10183811187744,0
41.202919006347656,37
41.202919006347656,27
41.202919006347656,11
41.202919006347656,0
41.202919006347656,18
41.202919006347656,2
41.202919006347656,7
41.202919006347656,0
41.202919006347656,1
41.30863118171692,10
41.30863118171692,1
41.30863118171692,8
41.30863118171692,3
41.30863118171692,30
41.30863118171692,0
41.30863118171692,30
41.30863118171692,6
41.30863118171692,6
41.30863118171692,24
41.30863118171692,13
41.414069175720215,9
41.414069175720215,0
41.414069175720215,0
41.414069175720215,16
41.414069175720215,9
41.414069175720215,0
41.414069175720215,0
41.414069175720215,26
41.414069175720215,11
41.51575326919556,3
41.51575326919556,19
41.51575326919556,0
41.51575326919556,3
41.51575326919556,0
41.51575326919556,5
41.51575326919556,5
41.51575326919556,4
41.51575326919556,10
41.51575326919556,0
41.51575326919556,4
41.61825776100159,12
41.61825776100159,0
41.61825776100159,5
41.61825776100159,0
41.61825776100159,3
41.61825776100159,14
41.61825776100159,0
41.61825776100159,0
41.61825776100159,0
41.61825776100159,0
41.70489025115967,1
41.70489025115967,3
41.70489025115967,0
41.70489025115967,0
41.70489025115967,1
41.70489025115967,0
41.70489025115967,0
41.70489025115967,1
41.70489025115967,0
41.70489025115967,0
41.81359577178955,11
41.81359577178955,12
41.81359577178955,0
41.81359577178955,0
41.81359577178955,0
41.81359577178955,1
41.81359577178955,0
41.81359577178955,0
41.815600872039795,0
41.90533113479614,1
41.90533113479614,0
41.90533113479614,0
41.90533113479614,0
41.90533113479614,0
41.90533113479614,0
41.90533113479614,2
41.90533113479614,2
41.90533113479614,2
41.99130702018738,43
41.99130702018738,9
41.99130702018738,0
41.99130702018738,10
41.99130702018738,26
41.99130702018738,32
41.99130702018738,14
41.99130702018738,14
41.99130702018738,37
42.086363315582275,68
42.086363315582275,1
42.086363315582275,0
42.086363315582275,8
42.086363315582275,22
42.086363315582275,117
42.086363315582275,31
42.086363315582275,117
42.086363315582275,15
42.1795015335083,0
42.1795015335083,38
42.1795015335083,20
42.1795015335083,108
42.1795015335083,112
42.1795015335083,133
42.1795015335083,9
42.1795015335083,34
42.277981758117676,147
42.277981758117676,245
42.277981758117676,0
42.277981758117676,35
42.277981758117676,69
42.277981758117676,43
42.277981758117676,105
42.277981758117676,78
42.277981758117676,103
42.277981758117676,23
42.375237703323364,11
42.375237703323364,2
42.37724304199219,0
42.37724304199219,0
42.37724304199219,3
42.37724304199219,0
42.37724304199219,0
42.37724304199219,0
42.37724304199219,0
42.37724304199219,0
42.46659469604492,0
42.46659469604492,2
42.46659469604492,0
42.46659469604492,0
42.46659469604492,0
42.46659469604492,0
42.46659469604492,0
42.46659469604492,0
42.46659469604492,0
42.46659469604492,0
42.57190823554993,0
42.57190823554993,0
42.57190823554993,0
42.57190823554993,0
42.57190823554993,0
42.57190823554993,0
42.57190823554993,0
42.57190823554993,0
42.57190823554993,0
42.67365550994873,2
42.67365550994873,0
42.67365550994873,0
42.67365550994873,0
42.67365550994873,0
42.67365550994873,0
42.67365550994873,0
42.67365550994873,0
42.67365550994873,0
42.67365550994873,0
42.75339889526367,0
42.75339889526367,1
42.75339889526367,0
42.75339889526367,0
42.75339889526367,0
42.75339889526367,0
42.75339889526367,0
42.75339889526367,21
42.75339889526367,0
42.86257338523865,1
42.86257338523865,4
42.86257338523865,0
42.86257338523865,0
42.86257338523865,0
42.86257338523865,0
42.86257338523865,0
42.86257338523865,12
42.86257338523865,0
42.86257338523865,3
42.94376754760742,0
42.94376754760742,4
42.94376754760742,0
42.94376754760742,31
42.94376754760742,6
42.94376754760742,7
42.94376754760742,1
42.94376754760742,5
42.94376754760742,5
43.038777589797974,21
43.038777589797974,30
43.038777589797974,8
43.038777589797974,1
43.038777589797974,0
43.038777589797974,1
43.038777589797974,3
43.05443048477173,0
43.05443048477173,5
43.05443048477173,0
43.149688959121704,0
43.149688959121704,13
43.149688959121704,0
43.149688959121704,2
43.149688959121704,0
43.149688959121704,0
43.149688959121704,0
43.149688959121704,15
43.149688959121704,3
43.244718074798584,13
43.244718074798584,7
43.244718074798584,0
43.244718074798584,0
43.244718074798584,0
43.244718074798584,0
43.244718074798584,1
43.244718074798584,8
43.244718074798584,0
43.244718074798584,0
43.35193657875061,7
43.35193657875061,1
43.35193657875061,0
43.35193657875061,34
43.35193657875061,9
43.35193657875061,18
43.35193657875061,4
43.35193657875061,0
43.35193657875061,0
43.35193657875061,0
43.45125985145569,0
43.45125985145569,0
43.45125985145569,0
43.45125985145569,0
43.45125985145569,80
43.453266620635986,372
43.453266620635986,7
43.453266620635986,23
43.453266620635986,10
43.453266620635986,0
43.54876160621643,30
43.54876160621643,0
43.54876160621643,0
43.54876160621643,10
43.54876160621643,0
43.54876160621643,0
43.54876160621643,0
43.54876160621643,0
43.54876160621643,0
43.54876160621643,0
43.64415717124939,0
43.64415717124939,0
43.64415717124939,0
43.64415717124939,0
43.64415717124939,0
43.64415717124939,0
43.64415717124939,10
43.64415717124939,2
43.64415717124939,0
43.64415717124939,0
43.750988245010376,0
43.750988245010376,0
43.750988245010376,0
43.750988245010376,5
43.750988245010376,6
43.750988245010376,0
43.750988245010376,0
43.75299382209778,7
43.75299382209778,2
43.84681057929993,0
43.84681057929993,0
43.84681057929993,0
43.84781575202942,0
43.84781575202942,1
43.84781575202942,0
43.84781575202942,0
43.84781575202942,0
43.84781575202942,0
43.84781575202942,0
43.94000554084778,0
43.94000554084778,0
43.94000554084778,0
43.94000554084778,0
43.94000554084778,2
43.94000554084778,4
43.94000554084778,0
43.94000554084778,0
43.94000554084778,2
44.034539222717285,0
44.034539222717285,0
44.034539222717285,10
44.034539222717285,6
44.034539222717285,0
44.034539222717285,0
44.034539222717285,0
44.034539222717285,4
44.034539222717285,0
44.13008165359497,0
44.13008165359497,0
44.13008165359497,1
44.13008165359497,0
44.13008165359497,0
44.13008165359497,0
44.13008165359497,2
44.13208818435669,0
44.13208818435669,0
44.2272162437439,0
44.2272162437439,4
44.2272162437439,0
44.2272162437439,2
44.2272162437439,0
44.2272162437439,1
44.2272162437439,0
44.228963136672974,0
44.228963136672974,0
44.228963136672974,0
44.324700117111206,0
44.324700117111206,0
44.324700117111206,0
44.324700117111206,0
44.324700117111206,0
44.324700117111206,0
44.324700117111206,0
44.324700117111206,0
44.324700117111206,0
44.419729232788086,0
44.419729232788086,0
44.419729232788086,0
44.419729232788086,0
44.419729232788086,3
44.419729232788086,0
44.419729232788086,0
44.419729232788086,0
44.419729232788086,0
44.419729232788086,0
44.512017488479614,0
44.512017488479614,0
44.512017488479614,0
44.512017488479614,0
44.512017488479614,0
44.512017488479614,0
44.512017488479614,0
44.512017488479614,5
44.512017488479614,0
44.594308376312256,0
44.594308376312256,0
44.594308376312256,0
44.594308376312256,0
44.594308376312256,0
44.594308376312256,0
44.594308376312256,3
44.594308376312256,0
44.594308376312256,0
44.69036674499512,0
44.69036674499512,0
44.69036674499512,0
44.69036674499512,0
44.69036674499512,0
44.69036674499512,0
44.69036674499512,0
44.69036674499512,1
44.69036674499512,0
44.69036674499512,0
44.79993939399719,0
44.79993939399719,0
44.79993939399719,0
44.79993939399719,0
44.79993939399719,0
44.79993939399719,0
44.79993939399719,0
44.79993939399719,2
44.79993939399719,0
44.89366006851196,0
44.89366006851196,0
44.89366006851196,0
44.89366006851196,0
44.89366006851196,0
44.89366006851196,0
44.89366006851196,0
44.89366006851196,5
44.89566612243652,0
44.89566612243652,0
44.986645460128784,0
44.986645460128784,0
44.986645460128784,0
44.986645460128784,0
44.986645460128784,0
44.986645460128784,1
44.986645460128784,4
44.986645460128784,0
44.986645460128784,0
45.08356499671936,7
45.08557081222534,3
45.08557081222534,0
45.08557081222534,0
45.08557081222534,0
45.08557081222534,0
45.08557081222534,0
45.08557081222534,0
45.08557081222534,0
45.18442916870117,0
45.18442916870117,0
45.18442916870117,0
45.18442916870117,0
45.18442916870117,0
45.18442916870117,0
45.18442916870117,0
45.18442916870117,0
45.18442916870117,0
45.18442916870117,1
45.278446674346924,0
45.278446674346924,1
45.278446674346924,0
45.278446674346924,1
45.278446674346924,0
45.278446674346924,0
45.278446674346924,0
45.278446674346924,0
45.278446674346924,0
45.37331533432007,7
45.37331533432007,0
45.37331533432007,0
45.37331533432007,0
45.37331533432007,0
45.37331533432007,0
45.37331533432007,0
45.37331533432007,0
45.37331533432007,1
45.37331533432007,0
45.471338510513306,0
45.471338510513306,0
45.471338510513306,0
45.471338510513306,0
45.471338510513306,0
45.471338510513306,0
45.471338510513306,0
45.471338510513306,1
45.471338510513306,0
45.5641565322876,0
45.5641565322876,0
45.5641565322876,9
45.5641565322876,0
45.5641565322876,1
45.5641565322876,0
45.5641565322876,0
45.5641565322876,0
45.5641565322876,0
45.5641565322876,4
45.661954402923584,0
45.661954402923584,3
45.661954402923584,1
45.661954402923584,0
45.661954402923584,0
45.661954402923584,0
45.661954402923584,0
45.661954402923584,0
45.661954402923584,0
45.75601768493652,0
45.75601768493652,0
45.75601768493652,0
45.75601768493652,1
45.75601768493652,0
45.75601768493652,0
45.75601768493652,0
45.75601768493652,7
45.75601768493652,0
45.84928274154663,1
45.84928274154663,0
45.84928274154663,2
45.84928274154663,0
45.84928274154663,0
45.84928274154663,1
45.84928274154663,4
45.84928274154663,0
45.84928274154663,0
45.94171690940857,0
45.94171690940857,0
45.94171690940857,0
45.94171690940857,0
45.94171690940857,0
45.94171690940857,2
45.94171690940857,0
45.94171690940857,1
45.94171690940857,0
45.94171690940857,0
46.03495216369629,0
46.03495216369629,0
46.03495216369629,5
46.03495216369629,0
46.03495216369629,0
46.03495216369629,0
46.03495216369629,0
46.03495216369629,0
46.03495216369629,0
46.13138246536255,9
46.13138246536255,0
46.13138246536255,0
46.13138246536255,0
46.13138246536255,0
46.13138246536255,0
46.13138246536255,0
46.13138246536255,0
46.13138246536255,0
46.21445035934448,0
46.21445035934448,0
46.21445035934448,0
46.21445035934448,0
46.21445035934448,6
46.21445035934448,1
46.21445035934448,0
46.21445035934448,0
46.21445035934448,0
46.21445035934448,0
46.31760120391846,0
46.31760120391846,0
46.31760120391846,1
46.31760120391846,0
46.31760120391846,0
46.31760120391846,0
46.31760120391846,0
46.31960678100586,0
46.31960678100586,0
46.408541202545166,0
46.408541202545166,0
46.408541202545166,0
46.408541202545166,29
46.408541202545166,0
46.408541202545166,0
46.408541202545166,0
46.408541202545166,0
46.408541202545166,0
46.50031566619873,3
46.50031566619873,0
46.50031566619873,0
46.50031566619873,0
46.50031566619873,54
46.50031566619873,0
46.50031566619873,5
46.50031566619873,0
46.50031566619873,5
46.59587001800537,6
46.59587001800537,8
46.59587001800537,0
46.59587001800537,13
46.59587001800537,122
46.59587001800537,7
46.59587001800537,16
46.59587001800537,136
46.59587001800537,35
46.69124221801758,16
46.69124221801758,11
46.69124221801758,2
46.69124221801758,0
46.69124221801758,5
46.69124221801758,2
46.69124221801758,1
46.69124221801758,3
46.69124221801758,0
46.78707838058472,0
46.78707838058472,0
46.78707838058472,198
46.78707838058472,208
46.78707838058472,0
46.78707838058472,19
46.78707838058472,3
46.78707838058472,13
46.78707838058472,17
46.78707838058472,0
46.88368225097656,0
46.88368225097656,12
46.88368225097656,187
46.88368225097656,205
46.88368225097656,64
46.88368225097656,24
46.88368225097656,99
46.88368225097656,1
46.88368225097656,45
46.977436542510986,31
46.977436542510986,1
46.977436542510986,0
46.977436542510986,12
46.977436542510986,14
46.977436542510986,114
46.977436542510986,258
46.97803258895874,38
46.97803258895874,6
47.07399916648865,83
47.07399916648865,79
47.07399916648865,27
47.07399916648865,334
47.07399916648865,219
47.07399916648865,169
47.07399916648865,108
47.07399916648865,40
47.07399916648865,296
47.07399916648865,106
47.17960834503174,55
47.17960834503174,143
47.17960834503174,642
47.17960834503174,20
47.17960834503174,368
47.17960834503174,405
47.17960834503174,151
47.17960834503174,168
47.17960834503174,888
47.17960834503174,206
47.28118443489075,196
47.28118443489075,123
47.28118443489075,152
47.28118443489075,717
47.28118443489075,95
47.28118443489075,234
47.28118443489075,5
47.28118443489075,21
47.28118443489075,198
47.28118443489075,260
47.37725329399109,362
47.37725329399109,448
47.37725329399109,482
47.37725329399109,895
47.37725329399109,194
47.37725329399109,7
47.37725329399109,15
47.37725329399109,83
47.37725329399109,162
47.478994607925415,260
47.478994607925415,32
47.478994607925415,179
47.478994607925415,249
47.478994607925415,145
47.478994607925415,378
47.478994607925415,73
47.478994607925415,82
47.478994607925415,151
47.478994607925415,703
47.568015575408936,235
47.568015575408936,128
47.568015575408936,196
47.568015575408936,129
47.568015575408936,110
47.568015575408936,148
47.568015575408936,65
47.568015575408936,113
47.568015575408936,2
47.568015575408936,9
47.66875767707825,5
47.66875767707825,23
47.66875767707825,127
47.67076373100281,50
47.67076373100281,116
47.67076373100281,133
47.67076373100281,74
47.67076373100281,37
47.67076373100281,201
47.76624655723572,6
47.76624655723572,19
47.76624655723572,164
47.76624655723572,142
47.76624655723572,933
47.76624655723572,163
47.76624655723572,387
47.76825261116028,20
47.76825261116028,82
47.853668212890625,21
47.853668212890625,77
47.853668212890625,70
47.853668212890625,284
47.853668212890625,487
47.853668212890625,260
47.853668212890625,99
47.853668212890625,286
47.853668212890625,51
47.853668212890625,43
47.949496030807495,103
47.949496030807495,203
47.949496030807495,265
47.949496030807495,476
47.949496030807495,271
47.949496030807495,79
47.949496030807495,401
47.949496030807495,6
47.949496030807495,44
48.05773639678955,27
48.05773639678955,323
48.05773639678955,370
48.05773639678955,229
48.05773639678955,42
48.05773639678955,47
48.05773639678955,143
48.05773639678955,36
48.05773639678955,155
48.05773639678955,18
48.15903306007385,10
48.15903306007385,118
48.15903306007385,322
48.15903306007385,81
48.15903306007385,77
48.15903306007385,377
48.15903306007385,140
48.15903306007385,180
48.15903306007385,167
48.15903306007385,72
48.25268292427063,50
48.25268292427063,104
48.25268292427063,569
48.25268292427063,4
48.25268292427063,16
48.25268292427063,52
48.25268292427063,102
48.25268292427063,273
48.25268292427063,140
48.356464862823486,283
48.356464862823486,247
48.356464862823486,4
48.356464862823486,2
48.356464862823486,10
48.356464862823486,198
48.356464862823486,356
48.356464862823486,234
48.356464862823486,95
48.356464862823486,198
48.443082332611084,199
48.443082332611084,93
48.443082332611084,203
48.443082332611084,334
48.443082332611084,154
48.443082332611084,261
48.443082332611084,421
48.443082332611084,26
48.443082332611084,30
48.443082332611084,306
48.55516505241394,339
48.55516505241394,59
48.55516505241394,70
48.55516505241394,37
48.55516505241394,83
48.55516505241394,905
48.55516505241394,528
48.55516505241394,261
48.55516505241394,15
48.55516505241394,31
48.66189455986023,588
48.66189455986023,213
48.66189455986023,614
48.66189455986023,150
48.66189455986023,194
48.66390013694763,31
48.66390013694763,311
48.66390013694763,134
48.66390013694763,57
48.66390013694763,62
48.764771938323975,161
48.764771938323975,188
48.764771938323975,581
48.764771938323975,238
48.764771938323975,151
48.764771938323975,478
48.764771938323975,65
48.764771938323975,182
48.764771938323975,230
48.764771938323975,47
48.856860399246216,253
48.856860399246216,277
48.856860399246216,10
48.856860399246216,28
48.856860399246216,107
48.856860399246216,174
48.856860399246216,193
48.856860399246216,592
48.856860399246216,422
48.968292236328125,175
48.968292236328125,156
48.968292236328125,160
48.968292236328125,252
48.968292236328125,779
48.968292236328125,504
48.968292236328125,493
48.968292236328125,380
48.968292236328125,452
48.968292236328125,756
48.968292236328125,50
49.064237117767334,97
49.064237117767334,293
49.064237117767334,7
49.064237117767334,129
49.064237117767334,92
49.064237117767334,79
49.064237117767334,24
49.064237117767334,44
49.064237117767334,298
49.17261528968811,114
49.17261528968811,1013
49.17261528968811,296
49.17261528968811,85
49.17261528968811,317
49.17261528968811,21
49.17261528968811,166
49.17261528968811,266
49.17462158203125,206
49.17462158203125,387
49.27586770057678,214
49.27586770057678,44
49.27586770057678,339
49.27586770057678,28
49.277873039245605,127
49.277873039245605,34
49.277873039245605,563
49.277873039245605,80
49.277873039245605,4
49.277873039245605,391
49.277873039245605,346
49.37739872932434,228
49.37739872932434,21
49.37739872932434,104
49.37739872932434,157
49.37739872932434,311
49.37739872932434,185
49.37739872932434,42
49.379409074783325,309
49.379409074783325,53
49.379409074783325,16
49.47775959968567,85
49.47775959968567,492
49.47775959968567,35
49.47775959968567,399
49.47775959968567,205
49.47775959968567,82
49.47775959968567,555
49.47775959968567,0
49.47775959968567,58
49.47775959968567,8
49.58340835571289,125
49.58340835571289,503
49.58340835571289,84
49.58340835571289,189
49.58340835571289,149
49.58340835571289,89
49.58340835571289,979
49.58340835571289,217
49.58340835571289,342
49.58340835571289,454
49.683696031570435,239
49.683696031570435,561
49.683696031570435,98
49.683696031570435,83
49.683696031570435,53
49.683696031570435,409
49.683696031570435,428
49.683696031570435,0
49.683696031570435,3
49.683696031570435,179
49.790746212005615,508
49.790746212005615,546
49.790746212005615,284
49.790746212005615,728
49.790746212005615,179
49.790746212005615,326
49.790746212005615,342
49.790746212005615,60
49.790746212005615,331
49.790746212005615,236
49.89084482192993,249
49.89084482192993,233
49.89084482192993,421
49.89084482192993,38
49.89084482192993,151
49.89084482192993,60
49.89084482192993,34
49.89084482192993,697
49.89084482192993,194
49.89084482192993,556
49.996095418930054,731
49.996095418930054,187
49.996095418930054,145
49.996095418930054,8
49.996095418930054,106
49.996095418930054,16
49.996095418930054,470
49.996095418930054,384
49.996095418930054,19
49.996095418930054,61
50.09479880332947,83
50.09479880332947,254
50.09479880332947,437
50.09479880332947,48
50.09479880332947,67
50.09479880332947,8
50.09479880332947,272
50.09479880332947,105
50.09479880332947,113
50.09479880332947,50
50.19201731681824,31
50.19201731681824,0
50.19201731681824,20
50.19201731681824,0
50.19201731681824,65
50.19201731681824,35
50.19201731681824,1023
50.19201731681824,927
50.19201731681824,563
50.28549385070801,175
50.28749990463257,238
50.28749990463257,526
50.28749990463257,25
50.28749990463257,218
50.28749990463257,74
50.28749990463257,40
50.28749990463257,925
50.28749990463257,405
50.38088345527649,339
50.38088345527649,36
50.38088345527649,326
50.38088345527649,219
50.38088345527649,10
50.38088345527649,14
50.38088345527649,673
50.38088345527649,23
50.38088345527649,33
50.38088345527649,344
50.477853775024414,1023
50.477853775024414,903
50.477853775024414,150
50.477853775024414,62
50.477853775024414,220
50.477853775024414,370
50.477853775024414,78
50.477853775024414,23
50.477853775024414,614
50.57808017730713,60
50.57808017730713,482
50.57808017730713,72
50.57808017730713,2
50.57808017730713,20
50.57808017730713,0
50.57808017730713,209
50.57808017730713,557
50.57808017730713,8
50.57808017730713,30
50.66708779335022,470
50.66708779335022,101
50.66708779335022,82
50.66708779335022,166
50.66708779335022,118
50.66708779335022,348
50.66708779335022,17
50.66708779335022,190
50.66708779335022,199
50.762176513671875,53
50.762176513671875,25
50.762176513671875,28
50.762176513671875,39
50.762176513671875,112
50.762176513671875,735
50.762176513671875,83
50.762176513671875,433
50.762176513671875,73
50.762176513671875,73
50.871320724487305,0
50.871320724487305,244
50.871320724487305,30
50.871320724487305,239
50.871320724487305,17
50.871320724487305,444
50.871320724487305,113
50.871320724487305,74
50.871320724487305,53
50.871320724487305,3
50.96864056587219,359
50.96864056587219,2
50.96864056587219,12
50.96864056587219,110
50.96864056587219,269
50.96864056587219,46
50.96864056587219,67
50.96864056587219,9
50.96864056587219,32
51.06533765792847,113
51.06533765792847,85
51.06533765792847,94
51.06533765792847,0
51.06533765792847,631
51.06533765792847,13
51.06533765792847,10
51.06533765792847,0
51.06734371185303,24
51.06734371185303,2
51.157957792282104,38
51.157957792282104,161
51.157957792282104,52
51.157957792282104,40
51.157957792282104,1
51.157957792282104,0
51.157957792282104,42
51.157957792282104,70
51.157957792282104,18
51.253905057907104,0
51.253905057907104,0
51.253905057907104,0
51.253905057907104,0
51.253905057907104,0
51.253905057907104,0
51.253905057907104,11
51.253905057907104,2
51.253905057907104,5
51.34876751899719,0
51.34876751899719,6
51.34876751899719,0
51.34876751899719,0
51.34876751899719,11
51.34876751899719,0
51.34876751899719,3
51.34876751899719,38
51.34876751899719,20
51.34876751899719,52
51.45049500465393,18
51.45049500465393,8
51.45049500465393,6
51.45049500465393,7
51.45049500465393,83
51.45049500465393,178
51.45049500465393,23
51.45049500465393,13
51.45049500465393,28
51.53914260864258,7
51.53914260864258,32
51.53914260864258,0
51.53914260864258,20
51.53914260864258,11
51.53914260864258,20
51.53914260864258,0
51.53914260864258,0
51.53914260864258,0
51.53914260864258,0
51.64440035820007,10
51.64440035820007,2
51.64440035820007,6
51.64440035820007,0
51.64440035820007,0
51.64440035820007,0
51.64440035820007,0
51.64440035820007,0
51.64440035820007,6
51.72964358329773,0
51.72964358329773,0
51.72964358329773,2
51.72964358329773,2
51.72964358329773,0
51.72964358329773,5
51.72964358329773,0
51.72964358329773,0
51.72964358329773,0
51.72964358329773,0
51.83608841896057,0
51.83608841896057,0
51.83608841896057,0
51.83608841896057,5
51.83608841896057,19
51.83608841896057,15
51.83608841896057,11
51.83608841896057,0
51.83608841896057,0
51.93413043022156,0
51.93413043022156,0
51.93413043022156,0
51.93413043022156,0
51.93413043022156,2
51.93413043022156,0
51.93413043022156,1
51.93413043022156,0
51.93413043022156,1
51.93413043022156,0
52.034329652786255,1
52.034329652786255,19
52.034329652786255,7
52.034329652786255,28
52.034329652786255,0
52.034329652786255,0
52.034329652786255,1
52.034329652786255,4
52.034329652786255,0
52.034329652786255,0
52.1285674571991,0
52.1285674571991,0
52.1285674571991,0
52.1285674571991,0
52.1285674571991,6
52.1285674571991,0
52.1285674571991,0
52.1285674571991,0
52.1285674571991,0
52.1285674571991,0
52.23808288574219,0
52.23808288574219,7
52.23808288574219,0
52.23808288574219,0
52.23808288574219,0
52.23808288574219,0
52.23808288574219,12
52.23808288574219,0
52.23808288574219,0
52.23808288574219,1
52.33850359916687,0
52.33850359916687,0
52.33850359916687,0
52.33850359916687,3
52.33850359916687,0
52.33850359916687,0
52.33850359916687,0
52.33850359916687,0
52.33850359916687,0
52.33850359916687,0
52.43774676322937,1
52.43774676322937,0
52.43774676322937,0
52.43774676322937,1
52.43774676322937,1
52.43774676322937,3
52.43774676322937,0
52.43774676322937,0
52.43774676322937,0
52.54115176200867,0
52.54115176200867,5
52.54115176200867,0
52.54115176200867,0
52.54115176200867,3
52.54115176200867,0
52.54115176200867,0
52.54115176200867,0
52.54115176200867,1
52.54115176200867,0
52.54115176200867,1
52.63583540916443,0
52.63583540916443,0
52.63583540916443,3
52.63583540916443,0
52.63583540916443,0
52.63583540916443,0
52.63583540916443,0
52.63583540916443,0
52.63583540916443,0
52.63583540916443,4
52.746861934661865,0
52.746861934661865,0
52.746861934661865,0
52.746861934661865,0
52.746861934661865,0
52.746861934661865,0
52.746861934661865,2
52.746861934661865,0
52.746861934661865,0
52.746861934661865,0
52.84836196899414,0
52.84836196899414,0
52.84836196899414,0
52.84836196899414,1
52.84836196899414,0
52.84836196899414,0
52.84836196899414,0
52.850367069244385,0
52.850367069244385,2
52.850367069244385,0
52.94931411743164,5
52.94931411743164,0
52.94931411743164,0
52.94931411743164,0
52.94931411743164,0
52.94931411743164,0
52.94931411743164,5
52.94931411743164,0
52.94931411743164,0
52.94931411743164,2
53.052226305007935,0
53.052226305007935,3
53.052226305007935,2
53.052226305007935,4
53.052226305007935,1
53.052226305007935,0
53.052226305007935,0
53.052226305007935,0
53.052226305007935,0
53.052226305007935,0
53.14504909515381,2
53.14504909515381,0
53.14504909515381,0
53.14504909515381,0
53.14504909515381,0
53.14504909515381,0
53.14504909515381,3
53.14504909515381,0
53.14504909515381,0
53.14504909515381,0
53.254470348358154,2
53.254470348358154,0
53.254470348358154,1
53.254470348358154,7
53.254470348358154,0
53.254470348358154,0
53.254470348358154,0
53.254470348358154,0
53.254470348358154,0
53.254470348358154,12
53.35550093650818,0
53.35550093650818,2
53.35550093650818,9
53.35550093650818,0
53.35550093650818,1
53.35750651359558,0
53.35750651359558,0
53.35750651359558,0
53.35750651359558,0
53.35750651359558,11
53.45809817314148,7
53.45809817314148,1
53.45809817314148,0
53.45809817314148,0
53.45809817314148,0
53.45809817314148,0
53.45809817314148,0
53.45809817314148,0
53.45809817314148,0
53.45809817314148,0
53.55326318740845,0
53.55326318740845,0
53.55326318740845,0
53.55326318740845,0
53.55326318740845,0
53.55326318740845,0
53.55326318740845,3
53.55326318740845,7
53.55326318740845,0
53.648985147476196,0
53.648985147476196,3
53.648985147476196,4
53.648985147476196,9
53.648985147476196,4
53.648985147476196,0
53.648985147476196,0
53.648985147476196,0
53.648985147476196,0
53.74275326728821,0
53.74275326728821,10
53.74275326728821,0
53.74275326728821,12
53.74275326728821,0
53.74275326728821,7
53.74275326728821,0
53.74275326728821,6
53.74275326728821,0
53.74275326728821,6
53.837924003601074,0
53.837924003601074,4
53.837924003601074,0
53.837924003601074,0
53.837924003601074,0
53.837924003601074,0
53.837924003601074,0
53.837924003601074,0
53.837924003601074,1
53.931458473205566,0
53.931458473205566,0
53.931458473205566,0
53.931458473205566,1
53.931458473205566,0
53.931458473205566,0
53.931458473205566,0
53.931458473205566,0
53.931458473205566,0
54.0168182849884,0
54.0168182849884,0
54.0168182849884,5
54.0168182849884,0
54.0168182849884,1
54.0168182849884,0
54.0168182849884,1
54.0168182849884,0
54.0168182849884,1
54.0168182849884,0
54.121885538101196,1
54.121885538101196,0
54.121885538101196,0
54.121885538101196,0
54.121885538101196,21
54.121885538101196,0
54.121885538101196,9
54.121885538101196,0
54.121885538101196,10
54.20886158943176,34
54.20886158943176,7
54.20886158943176,16
54.20886158943176,0
54.20886158943176,8
54.20886158943176,14
54.20886158943176,16
54.20886158943176,5
54.20886158943176,4
54.303694009780884,12
54.303694009780884,3
54.303694009780884,2
54.303694009780884,29
54.303694009780884,16
54.303694009780884,1
54.303694009780884,23
54.303694009780884,19
54.303694009780884,0
54.39825415611267,16
54.39825415611267,17
54.39825415611267,9
54.39825415611267,17
54.39825415611267,32
54.39825415611267,42
54.39825415611267,30
54.39825415611267,92
54.39825415611267,1
54.39825415611267,0
54.49363851547241,0
54.49363851547241,60
54.49363851547241,28
54.49363851547241,21
54.49363851547241,50
54.49363851547241,9
54.49363851547241,0
54.49363851547241,75
54.49363851547241,102
54.60500693321228,12
54.60500693321228,27
54.60500693321228,8
54.60500693321228,148
54.60500693321228,9
54.60500693321228,8
54.60500693321228,0
54.60500693321228,0
54.60500693321228,59
54.60500693321228,2
54.7043776512146,0
54.7043776512146,0
54.7043776512146,17
54.7043776512146,18
54.7043776512146,0
54.7043776512146,42
54.7043776512146,1
54.7043776512146,0
54.7043776512146,0
54.7043776512146,21
54.79561448097229,0
54.79561448097229,5
54.79561448097229,0
54.79561448097229,9
54.79561448097229,0
54.79561448097229,7
54.79561448097229,4
54.79561448097229,2
54.79561448097229,0
54.79561448097229,3
54.89113235473633,0
54.89113235473633,0
54.89113235473633,0
54.89113235473633,0
54.89113235473633,0
54.89113235473633,0
54.89113235473633,0
54.89113235473633,0
54.89113235473633,0
54.89113235473633,0
54.99942111968994,0
54.99942111968994,0
54.99942111968994,0
54.99942111968994,2
54.99942111968994,0
54.99942111968994,0
54.99942111968994,2
54.99942111968994,6
54.99942111968994,0
55.092459201812744,0
55.092459201812744,0
55.092459201812744,0
55.092459201812744,0
55.092459201812744,0
55.092459201812744,5
55.092459201812744,0
55.092459201812744,1
55.092459201812744,0
55.092459201812744,0
55.18942046165466,1
55.18942046165466,0
55.18942046165466,0
55.18942046165466,2
55.18942046165466,0
55.18942046165466,1
55.18942046165466,0
55.18942046165466,0
55.18942046165466,0
55.28295016288757,4
55.28295016288757,0
55.28295016288757,8
55.28295016288757,0
55.28295016288757,8
55.28295016288757,10
55.28295016288757,12
55.28295016288757,25
55.28295016288757,11
55.37875318527222,0
55.37875318527222,3
55.37875318527222,0
55.37875318527222,7
55.37875318527222,8
55.37875318527222,10
55.37875318527222,3
55.37875318527222,7
55.37875318527222,9
55.48212456703186,0
55.48212456703186,4
55.48212456703186,8
55.48212456703186,2
55.48212456703186,4
55.48212456703186,0
55.48212456703186,2
55.48212456703186,0
55.48212456703186,0
55.48212456703186,0
55.48212456703186,0
55.589858531951904,0
55.589858531951904,0
55.589858531951904,0
55.589858531951904,1
55.589858531951904,0
55.589858531951904,0
55.589858531951904,0
55.589858531951904,0
55.589858531951904,0
55.589858531951904,0
55.68565487861633,3
55.68565487861633,0
55.68565487861633,1
55.68565487861633,0
55.68565487861633,0
55.68565487861633,0
55.68565487861633,0
55.68565487861633,0
55.68565487861633,10
55.68565487861633,1
55.68565487861633,0
55.80315637588501,0
55.80315637588501,0
55.80315637588501,0
55.80315637588501,0
55.80315637588501,0
55.80315637588501,0
55.80315637588501,0
55.80315637588501,2
55.80315637588501,0
55.80315637588501,9
55.90833353996277,0
55.90833353996277,5
55.90833353996277,4
55.90833353996277,8
55.90833353996277,2
55.90833353996277,11
55.90833353996277,18
55.90833353996277,5
55.90833353996277,0
55.90833353996277,6
55.90833353996277,1
56.00586724281311,2
56.00586724281311,4
56.00586724281311,17
56.00586724281311,0
56.00586724281311,6
56.00586724281311,4
56.00586724281311,9
56.00586724281311,0
56.00586724281311,3
56.00586724281311,3
56.098363637924194,3
56.098363637924194,0
56.098363637924194,0
56.098363637924194,2
56.098363637924194,11
56.098363637924194,0
56.098363637924194,3
56.098363637924194,1
56.098363637924194,0
56.20329022407532,0
56.20329022407532,0
56.20329022407532,1
56.20329022407532,0
56.20329022407532,2
56.20329022407532,0
56.20329022407532,0
56.20329022407532,0
56.20329022407532,0
56.300503730773926,0
56.300503730773926,0
56.300503730773926,0
56.300503730773926,1
56.300503730773926,0
56.300503730773926,0
56.300503730773926,0
56.300503730773926,3
56.300503730773926,0
56.300503730773926,0
56.39755940437317,0
56.39755940437317,0
56.39755940437317,0
56.39755940437317,0
56.39755940437317,0
56.39755940437317,1
56.39755940437317,4
56.39755940437317,1
56.39755940437317,0
56.39755940437317,2
56.49501848220825,0
56.49501848220825,2
56.49501848220825,13
56.49501848220825,8
56.49501848220825,0
56.49501848220825,4
56.49501848220825,23
56.49501848220825,3
56.49501848220825,0
56.58998084068298,20
56.58998084068298,1
56.58998084068298,7
56.58998084068298,5
56.58998084068298,9
56.58998084068298,0
56.58998084068298,9
56.58998084068298,5
56.58998084068298,6
56.58998084068298,0
56.689129114151,3
56.689129114151,0
56.689129114151,0
56.689129114151,0
56.689129114151,0
56.689129114151,0
56.689129114151,0
56.689129114151,2
56.689129114151,1
56.786386251449585,0
56.786386251449585,0
56.786386251449585,0
56.786386251449585,0
56.786386251449585,3
56.786386251449585,0
56.786386251449585,1
56.786386251449585,0
56.786386251449585,6
56.786386251449585,0
56.87632656097412,5
56.87632656097412,0
56.87632656097412,10
56.87632656097412,2
56.87632656097412,0
56.87632656097412,0
56.87632656097412,0
56.87632656097412,6
56.87632656097412,0
56.98886227607727,0
56.98886227607727,0
56.98886227607727,0
56.98886227607727,0
56.98886227607727,0
56.98886227607727,5
56.98886227607727,0
56.98886227607727,6
56.98886227607727,2
56.98886227607727,8
56.98886227607727,0
57.090646743774414,7
57.090646743774414,7
57.090646743774414,9
57.090646743774414,8
57.090646743774414,5
57.090646743774414,3
57.090646743774414,8
57.090646743774414,4
57.090646743774414,0
57.090646743774414,12
57.204488039016724,11
57.204488039016724,1
57.204488039016724,9
57.204488039016724,5
57.204488039016724,9
57.204488039016724,3
57.204488039016724,6
57.204488039016724,2
57.204488039016724,6
57.204488039016724,0
57.204488039016724,5
57.319159746170044,0
57.319159746170044,0
57.319159746170044,0
57.319159746170044,0
57.319159746170044,0
57.319159746170044,1
57.319159746170044,0
57.319159746170044,0
57.319159746170044,0
57.319159746170044,0
57.319159746170044,0
57.408644676208496,0
57.408644676208496,0
57.408644676208496,0
57.408644676208496,0
57.408644676208496,0
57.408644676208496,0
57.408644676208496,0
57.408644676208496,0
57.408644676208496,1
57.408644676208496,0
57.52139902114868,0
57.52139902114868,1
57.52139902114868,0
57.52139902114868,3
57.52139902114868,0
57.52139902114868,0
57.52139902114868,2
57.52139902114868,0
57.52139902114868,0
57.52139902114868,0
57.52139902114868,0
57.616294622421265,3
57.616294622421265,3
57.616294622421265,6
57.616294622421265,0
57.616294622421265,10
57.616294622421265,4
57.616294622421265,15
57.616294622421265,12
57.616294622421265,15
57.616294622421265,18
57.738643407821655,4
57.738643407821655,0
57.738643407821655,9
57.738643407821655,1
57.738643407821655,15
57.738643407821655,14
57.738643407821655,13
57.738643407821655,10
57.738643407821655,10
57.738643407821655,8
57.8437180519104,6
57.8437180519104,0
57.8437180519104,3
57.84413170814514,0
57.84413170814514,0
57.84413170814514,0
57.84413170814514,0
57.84413170814514,0
57.84413170814514,0
57.84413170814514,0
57.84413170814514,0
57.955010414123535,0
57.955010414123535,0
