Time,EMG
0.8200759887695312,18
0.8200759887695312,0
0.8200759887695312,8
0.8200759887695312,3
0.8200759887695312,0
0.8200759887695312,0
0.8200759887695312,1
0.8200759887695312,3
0.8200759887695312,0
0.8200759887695312,0
0.8200759887695312,0
0.8200759887695312,0
0.8200759887695312,0
0.8246307373046875,1
0.8246307373046875,4
0.8246307373046875,0
0.8246307373046875,0
0.8246307373046875,0
0.8246307373046875,0
0.8246307373046875,0
0.8257327079772949,0
0.8257327079772949,2
0.8257327079772949,1
0.8257327079772949,0
0.8257327079772949,3
0.8257327079772949,4
0.8257327079772949,0
0.8257327079772949,1
0.8257327079772949,6
0.8257327079772949,0
0.8257327079772949,4
0.8257327079772949,0
0.8257327079772949,4
0.8257327079772949,0
0.8257327079772949,1
0.8257327079772949,0
0.8257327079772949,3
0.8274345397949219,2
0.8274345397949219,4
0.8274345397949219,0
0.8274345397949219,11
0.8274345397949219,13
0.8274345397949219,4
0.8274345397949219,0
0.8274345397949219,0
0.8274345397949219,5
0.8274345397949219,0
0.8274345397949219,0
0.8274345397949219,1
0.8274345397949219,0
0.8274345397949219,0
0.8274345397949219,0
0.8274345397949219,0
0.8274345397949219,0
0.8274345397949219,0
0.8274345397949219,0
0.8274345397949219,0
0.8274345397949219,0
0.8274345397949219,0
0.8274345397949219,0
0.8274345397949219,0
0.8274345397949219,0
0.8274345397949219,0
0.8274345397949219,0
0.8274345397949219,0
0.8274345397949219,0
0.8274345397949219,0
0.8274345397949219,0
0.8274345397949219,0
0.8274345397949219,0
0.8274345397949219,0
0.831061601638794,0
0.831061601638794,0
0.831061601638794,0
0.831061601638794,0
0.831061601638794,0
0.831061601638794,0
0.8317408561706543,0
0.8317408561706543,0
0.8317408561706543,0
0.8317408561706543,2
0.8317408561706543,2
0.8317408561706543,0
0.8317408561706543,4
0.8317408561706543,1
0.8317408561706543,15
0.8317408561706543,3
0.8317408561706543,9
0.8317408561706543,0
0.8317408561706543,5
0.8317408561706543,0
0.8317408561706543,12
0.8317408561706543,9
0.8317408561706543,6
0.8317408561706543,0
0.8317408561706543,6
0.8317408561706543,0
0.8317408561706543,4
0.8317408561706543,1
0.8317408561706543,0
0.8317408561706543,4
0.8317408561706543,7
0.8317408561706543,0
0.8317408561706543,0
0.8317408561706543,0
0.8317408561706543,0
0.8351209163665771,19
0.8351209163665771,1
0.8351209163665771,4
0.8351209163665771,5
0.8351209163665771,0
0.8351209163665771,0
0.8351209163665771,0
0.8351209163665771,13
0.8351209163665771,0
0.8351209163665771,0
0.8351209163665771,0
0.8351209163665771,9
0.8351209163665771,5
0.8351209163665771,0
0.8351209163665771,0
0.8351209163665771,1
0.8351209163665771,1
0.8351209163665771,17
0.8351209163665771,21
0.8351209163665771,3
0.8351209163665771,3
0.8351209163665771,16
0.8351209163665771,0
0.8381161689758301,0
0.8381161689758301,0
1.1477394104003906,7
1.1477394104003906,0
1.1477394104003906,0
1.1477394104003906,1
1.1477394104003906,0
1.1477394104003906,9
1.1477394104003906,0
1.1477394104003906,7
1.1477394104003906,1
1.1477394104003906,0
1.1477394104003906,32
1.1477394104003906,5
1.1477394104003906,0
1.1477394104003906,0
1.1477394104003906,0
1.1477394104003906,2
1.1477394104003906,0
1.1477394104003906,5
1.1477394104003906,8
1.1477394104003906,5
1.1477394104003906,0
1.1517822742462158,3
1.1517822742462158,6
1.1517822742462158,13
1.1517822742462158,7
1.1517822742462158,8
1.1517822742462158,8
1.1517822742462158,12
1.1517822742462158,3
1.1517822742462158,1
1.1517822742462158,0
1.345787763595581,0
1.345787763595581,0
1.345787763595581,0
1.345787763595581,0
1.345787763595581,0
1.345787763595581,0
1.345787763595581,0
1.345787763595581,9
1.345787763595581,0
1.345787763595581,0
1.345787763595581,1
1.345787763595581,0
1.345787763595581,8
1.345787763595581,0
1.345787763595581,0
1.345787763595581,0
1.345787763595581,0
1.345787763595581,12
1.345787763595581,0
1.505427360534668,2
1.505427360534668,0
1.505427360534668,6
1.505427360534668,0
1.505427360534668,3
1.505427360534668,16
1.505427360534668,0
1.505427360534668,7
1.505427360534668,4
1.505427360534668,13
1.505427360534668,2
1.505427360534668,0
1.505427360534668,3
1.505427360534668,0
1.505427360534668,2
1.672147512435913,1
1.672147512435913,0
1.672147512435913,1
1.672147512435913,4
1.672147512435913,0
1.672147512435913,0
1.672147512435913,0
1.672147512435913,18
1.672147512435913,19
1.672147512435913,0
1.672147512435913,3
1.672147512435913,6
1.672147512435913,4
1.672147512435913,0
1.672147512435913,0
1.672147512435913,3
1.672147512435913,0
1.8143393993377686,1
1.8143393993377686,0
1.8143393993377686,3
1.8143393993377686,0
1.8143393993377686,0
1.8143393993377686,0
1.8143393993377686,4
1.8143393993377686,0
1.8143393993377686,0
1.8143393993377686,12
1.8143393993377686,0
1.8143393993377686,2
1.8143393993377686,0
1.8143393993377686,0
1.9168612957000732,0
1.9168612957000732,0
1.9168612957000732,0
1.9168612957000732,0
1.9168612957000732,0
1.9168612957000732,2
1.9168612957000732,3
1.9168612957000732,1
1.9168612957000732,11
1.9168612957000732,0
2.0096940994262695,2
2.0096940994262695,0
2.0096940994262695,0
2.0096940994262695,0
2.0096940994262695,0
2.0096940994262695,0
2.0096940994262695,0
2.0096940994262695,0
2.0096940994262695,0
2.0096940994262695,0
2.1165201663970947,2
2.1165201663970947,1
2.1165201663970947,0
2.1165201663970947,5
2.1165201663970947,0
2.1165201663970947,12
2.1165201663970947,1
2.1165201663970947,1
2.1165201663970947,14
2.1165201663970947,0
2.2152962684631348,0
2.2152962684631348,4
2.2152962684631348,0
2.2152962684631348,8
2.2152962684631348,4
2.2173027992248535,5
2.2173027992248535,0
2.2173027992248535,10
2.2173027992248535,7
2.306880235671997,0
2.306880235671997,0
2.306880235671997,0
2.306880235671997,0
2.3226208686828613,5
2.3226208686828613,2
2.3226208686828613,2
2.3226208686828613,0
2.3226208686828613,34
2.3226208686828613,1
2.3226208686828613,3
2.422905206680298,0
2.422905206680298,0
2.422905206680298,22
2.422905206680298,2
2.422905206680298,23
2.422905206680298,0
2.422905206680298,1
2.422905206680298,9
2.422905206680298,2
2.422905206680298,4
2.5253500938415527,15
2.5253500938415527,3
2.5253500938415527,13
2.5253500938415527,7
2.5253500938415527,9
2.5253500938415527,0
2.5253500938415527,6
2.5253500938415527,14
2.5253500938415527,0
2.5253500938415527,3
2.6297168731689453,6
2.6297168731689453,7
2.6297168731689453,2
2.6297168731689453,9
2.6297168731689453,0
2.6297168731689453,0
2.6297168731689453,12
2.6297168731689453,0
2.6297168731689453,2
2.6297168731689453,6
2.7342169284820557,9
2.7342169284820557,8
2.735001564025879,15
2.735001564025879,22
2.735001564025879,8
2.735001564025879,0
2.735001564025879,0
2.735001564025879,0
2.735001564025879,6
2.735001564025879,1
2.828826665878296,16
2.828826665878296,0
2.828826665878296,0
2.828826665878296,0
2.828826665878296,0
2.828826665878296,0
2.828826665878296,0
2.828826665878296,13
2.828826665878296,0
2.828826665878296,16
2.9239273071289062,1
2.9239273071289062,0
2.9239273071289062,0
2.9239273071289062,0
2.9239273071289062,3
2.9239273071289062,1
2.9239273071289062,0
2.9239273071289062,0
2.9239273071289062,10
2.9239273071289062,0
3.0193259716033936,0
3.0193259716033936,18
3.0193259716033936,0
3.0193259716033936,6
3.0193259716033936,9
3.0193259716033936,0
3.0193259716033936,0
3.0193259716033936,2
3.0193259716033936,0
3.0354065895080566,0
3.1309072971343994,7
3.1309072971343994,1
3.1309072971343994,0
3.1309072971343994,3
3.1309072971343994,0
3.1309072971343994,0
3.1309072971343994,0
3.1309072971343994,0
3.1309072971343994,10
3.2259860038757324,10
3.2259860038757324,7
3.2259860038757324,0
3.2259860038757324,12
3.2259860038757324,5
3.2259860038757324,0
3.2259860038757324,8
3.2259860038757324,6
3.2259860038757324,17
3.2259860038757324,0
3.321899890899658,0
3.321899890899658,2
3.321899890899658,6
3.321899890899658,0
3.321899890899658,4
3.321899890899658,0
3.321899890899658,9
3.321899890899658,0
3.321899890899658,13
3.321899890899658,4
3.4441354274749756,3
3.4441354274749756,8
3.4441354274749756,3
3.4441354274749756,0
3.4441354274749756,1
3.4441354274749756,0
3.4441354274749756,6
3.4441354274749756,2
3.4441354274749756,0
3.4441354274749756,0
3.4441354274749756,9
3.5308456420898438,13
3.5308456420898438,0
3.5308456420898438,0
3.5308456420898438,23
3.5308456420898438,1
3.5308456420898438,0
3.5308456420898438,10
3.5308456420898438,1
3.5308456420898438,5
3.6475627422332764,10
3.6475627422332764,0
3.6475627422332764,0
3.6475627422332764,0
3.6475627422332764,0
3.6475627422332764,0
3.6475627422332764,0
3.6475627422332764,0
3.6475627422332764,21
3.6475627422332764,23
3.6475627422332764,0
3.746922492980957,0
3.746922492980957,41
3.746922492980957,0
3.746922492980957,0
3.746922492980957,0
3.746922492980957,0
3.746922492980957,9
3.746922492980957,2
3.746922492980957,12
3.746922492980957,1
3.8473892211914062,0
3.8473892211914062,0
3.8473892211914062,13
3.8473892211914062,2
3.8473892211914062,1
3.8473892211914062,5
3.8473892211914062,10
3.8473892211914062,5
3.8473892211914062,15
3.8473892211914062,0
3.942927598953247,7
3.942927598953247,6
3.942927598953247,25
3.942927598953247,0
3.942927598953247,2
3.942927598953247,0
3.942927598953247,4
3.942927598953247,2
3.942927598953247,6
4.048195838928223,1
4.048195838928223,0
4.048195838928223,0
4.048195838928223,3
4.048195838928223,0
4.048195838928223,1
4.048195838928223,0
4.048195838928223,0
4.048195838928223,0
4.048195838928223,0
4.143166780471802,0
4.143166780471802,0
4.143166780471802,0
4.143166780471802,0
4.143166780471802,16
4.143166780471802,9
4.143166780471802,0
4.143166780471802,5
4.143166780471802,0
4.143166780471802,1
4.241266489028931,49
4.241266489028931,42
4.241266489028931,10
4.241266489028931,0
4.241266489028931,0
4.241266489028931,11
4.241266489028931,3
4.241266489028931,30
4.241266489028931,0
4.346635103225708,82
4.346635103225708,6
4.346635103225708,0
4.346635103225708,3
4.346635103225708,1
4.346635103225708,15
4.346635103225708,49
4.346635103225708,0
4.346635103225708,2
4.346635103225708,0
4.446027040481567,1
4.446027040481567,33
4.446027040481567,47
4.446027040481567,0
4.446027040481567,1
4.446027040481567,5
4.446027040481567,4
4.446027040481567,59
4.446027040481567,33
4.446027040481567,51
4.530629873275757,78
4.546565532684326,31
4.546565532684326,59
4.546565532684326,5
4.546565532684326,0
4.546565532684326,215
4.546565532684326,53
4.546565532684326,25
4.546565532684326,0
4.546565532684326,38
4.644570589065552,27
4.644570589065552,310
4.644570589065552,65
4.644570589065552,17
4.644570589065552,0
4.644570589065552,15
4.644570589065552,38
4.644570589065552,22
4.644570589065552,0
4.644570589065552,14
4.737747669219971,1
4.737747669219971,15
4.737747669219971,12
4.737747669219971,20
4.737747669219971,37
4.737747669219971,19
4.737747669219971,2
4.737747669219971,0
4.737747669219971,7
4.840753078460693,130
4.840753078460693,69
4.840753078460693,0
4.840753078460693,4
4.840753078460693,6
4.840753078460693,98
4.840753078460693,238
4.840753078460693,24
4.840753078460693,0
4.840753078460693,10
4.9377593994140625,19
4.9377593994140625,128
4.9377593994140625,64
4.9377593994140625,116
4.9377593994140625,38
4.9377593994140625,8
4.9377593994140625,0
4.9377593994140625,33
4.9377593994140625,85
5.023357629776001,46
5.023357629776001,10
5.023357629776001,5
5.023357629776001,1
5.023357629776001,0
5.023357629776001,3
5.023357629776001,42
5.023357629776001,4
5.023357629776001,17
5.023357629776001,0
5.128413438796997,35
5.128413438796997,14
5.128413438796997,77
5.128413438796997,37
5.128413438796997,0
5.128413438796997,13
5.128413438796997,46
5.128413438796997,4
5.128413438796997,4
5.2140583992004395,4
5.2140583992004395,0
5.2140583992004395,1
5.2140583992004395,23
5.2140583992004395,121
5.2140583992004395,152
5.2140583992004395,4
5.2140583992004395,1
5.2140583992004395,0
5.322728395462036,12
5.322728395462036,49
5.322728395462036,0
5.322728395462036,7
5.322728395462036,2
5.322728395462036,7
5.322728395462036,6
5.322728395462036,151
5.324475049972534,37
5.324475049972534,1
5.420582056045532,0
5.420582056045532,7
5.420582056045532,0
5.420582056045532,18
5.420582056045532,19
5.420582056045532,11
5.420582056045532,13
5.420582056045532,11
5.420582056045532,0
5.420582056045532,29
5.5159618854522705,17
5.5159618854522705,84
5.5159618854522705,12
5.5159618854522705,3
5.5159618854522705,26
5.5159618854522705,60
5.5159618854522705,0
5.5159618854522705,0
5.5159618854522705,0
5.61067271232605,0
5.61067271232605,0
5.61067271232605,12
5.61067271232605,38
5.61067271232605,0
5.61067271232605,44
5.61067271232605,2
5.61067271232605,0
5.61067271232605,0
5.61067271232605,9
5.713881731033325,35
5.713881731033325,53
5.715887069702148,18
5.715887069702148,0
5.715887069702148,0
5.715887069702148,4
5.715887069702148,67
5.715887069702148,58
5.715887069702148,22
5.715887069702148,44
5.817322254180908,0
5.817322254180908,0
5.817322254180908,0
5.817322254180908,12
5.817322254180908,49
5.817322254180908,19
5.817322254180908,9
5.817322254180908,0
5.817322254180908,0
5.817322254180908,6
5.912844181060791,15
5.912844181060791,104
5.912844181060791,0
5.912844181060791,1
5.912844181060791,0
5.912844181060791,9
5.912844181060791,2
5.912844181060791,79
5.912844181060791,13
5.912844181060791,6
6.007035493850708,13
6.007035493850708,16
6.007035493850708,8
6.022935152053833,0
6.022935152053833,1
6.022935152053833,21
6.022935152053833,4
6.022935152053833,0
6.022935152053833,0
6.022935152053833,2
6.119425058364868,1
6.119425058364868,22
6.119425058364868,0
6.119425058364868,25
6.119425058364868,6
6.119425058364868,0
6.119425058364868,0
6.119425058364868,0
6.119425058364868,0
6.119425058364868,0
6.221360683441162,0
6.221360683441162,0
6.221360683441162,0
6.221360683441162,1
6.221360683441162,1
6.221360683441162,13
6.221360683441162,13
6.221360683441162,0
6.221360683441162,4
6.221360683441162,0
6.319902658462524,0
6.319902658462524,0
6.319902658462524,19
6.319902658462524,4
6.319902658462524,0
6.319902658462524,1
6.321908235549927,0
6.321908235549927,0
6.321908235549927,0
6.420885801315308,0
6.420885801315308,0
6.420885801315308,15
6.420885801315308,9
6.420885801315308,0
6.420885801315308,7
6.420885801315308,1
6.420885801315308,13
6.420885801315308,3
6.420885801315308,2
6.5160300731658936,13
6.5160300731658936,0
6.5160300731658936,0
6.5160300731658936,0
6.5160300731658936,0
6.5160300731658936,17
6.5160300731658936,10
6.5160300731658936,1
6.5160300731658936,0
6.5160300731658936,2
6.618832349777222,0
6.618832349777222,0
6.618832349777222,10
6.618832349777222,8
6.618832349777222,2
6.618832349777222,0
6.618832349777222,3
6.618832349777222,29
6.618832349777222,79
6.7052247524261475,0
6.7052247524261475,0
6.7052247524261475,4
6.7052247524261475,9
6.7052247524261475,0
6.7052247524261475,19
6.7052247524261475,1
6.7052247524261475,0
6.7052247524261475,0
6.7052247524261475,0
6.817547082901001,0
6.817547082901001,0
6.817547082901001,0
6.817547082901001,0
6.817547082901001,0
6.817547082901001,23
6.817547082901001,10
6.817547082901001,0
6.817547082901001,2
6.817547082901001,0
6.917396783828735,0
6.917396783828735,0
6.917396783828735,1
6.917396783828735,0
6.917396783828735,1
6.917396783828735,5
6.917396783828735,0
6.917396783828735,0
6.917396783828735,1
6.917396783828735,19
7.008253812789917,5
7.008253812789917,0
7.008253812789917,0
7.008253812789917,10
7.008253812789917,4
7.008253812789917,4
7.008253812789917,4
7.008253812789917,1
7.008253812789917,0
7.1133294105529785,0
7.1133294105529785,83
7.115334987640381,14
7.115334987640381,0
7.115334987640381,0
7.115334987640381,20
7.115334987640381,79
7.115334987640381,0
7.115334987640381,18
7.115334987640381,10
7.214163064956665,4
7.214163064956665,0
7.214163064956665,29
7.214163064956665,8
7.214163064956665,27
7.214163064956665,11
7.214163064956665,52
7.214163064956665,3
7.214163064956665,0
7.214163064956665,16
7.308397531509399,0
7.308397531509399,7
7.308397531509399,1
7.308397531509399,2
7.308397531509399,41
7.308397531509399,19
7.308397531509399,0
7.308397531509399,10
7.308397531509399,8
7.4059977531433105,119
7.4059977531433105,28
7.4059977531433105,107
7.4059977531433105,32
7.4059977531433105,0
7.4059977531433105,172
7.4059977531433105,242
7.4059977531433105,356
7.4059977531433105,69
7.50185489654541,146
7.50185489654541,224
7.50185489654541,305
7.50185489654541,432
7.50185489654541,28
7.50185489654541,177
7.50185489654541,25
7.50185489654541,232
7.50185489654541,230
7.50185489654541,208
7.597301006317139,797
7.597301006317139,31
7.597301006317139,4
7.597301006317139,58
7.597301006317139,87
7.597301006317139,48
7.597301006317139,89
7.597301006317139,79
7.597301006317139,1
7.67925763130188,232
7.67925763130188,132
7.67925763130188,31
7.67925763130188,145
7.67925763130188,23
7.67925763130188,245
7.67925763130188,505
7.67925763130188,314
7.67925763130188,477
7.788934946060181,180
7.788934946060181,32
7.788934946060181,186
7.788934946060181,1008
7.788934946060181,43
7.788934946060181,69
7.788934946060181,3
7.788934946060181,191
7.788934946060181,35
7.788934946060181,52
7.883896350860596,119
7.883896350860596,352
7.883896350860596,64
7.883896350860596,189
7.883896350860596,326
7.883896350860596,438
7.883896350860596,324
7.883896350860596,21
7.883896350860596,175
7.883896350860596,44
7.984443664550781,981
7.984443664550781,130
7.984443664550781,198
7.984443664550781,2
7.984443664550781,227
7.984443664550781,15
7.984443664550781,625
7.984443664550781,244
7.984443664550781,73
8.078553915023804,22
8.078553915023804,0
8.078553915023804,260
8.078553915023804,348
8.078553915023804,118
8.078553915023804,200
8.078553915023804,262
8.078553915023804,93
8.078553915023804,95
8.175665855407715,78
8.175665855407715,70
8.175665855407715,102
8.175665855407715,18
8.175665855407715,145
8.175665855407715,6
8.175665855407715,32
8.175665855407715,36
8.175665855407715,529
8.175665855407715,22
8.265352725982666,97
8.265352725982666,35
8.265352725982666,378
8.265352725982666,311
8.265352725982666,486
8.265352725982666,67
8.265352725982666,284
8.265352725982666,5
8.265352725982666,162
8.265352725982666,7
8.361640930175781,203
8.361640930175781,186
8.361640930175781,17
8.361640930175781,235
8.361640930175781,136
8.361640930175781,173
8.361640930175781,263
8.361640930175781,321
8.361640930175781,66
8.472385168075562,73
8.472385168075562,4
8.472385168075562,600
8.472385168075562,36
8.472385168075562,353
8.472385168075562,134
8.472385168075562,99
8.472385168075562,542
8.472385168075562,84
8.472385168075562,9
8.57191777229309,40
8.57191777229309,60
8.57191777229309,119
8.57191777229309,16
8.57191777229309,14
8.57191777229309,0
8.57191777229309,353
8.57191777229309,102
8.57191777229309,77
8.663237571716309,366
8.663237571716309,97
8.663237571716309,108
8.663237571716309,41
8.663237571716309,987
8.663237571716309,60
8.663237571716309,12
8.663237571716309,80
8.663237571716309,92
8.663237571716309,286
8.771201610565186,59
8.771201610565186,142
8.771201610565186,1
8.771201610565186,0
8.771201610565186,82
8.771201610565186,32
8.771201610565186,226
8.771201610565186,16
8.771201610565186,366
8.771201610565186,114
8.867600679397583,260
8.867600679397583,282
8.867600679397583,97
8.867600679397583,120
8.867600679397583,25
8.867600679397583,45
8.867600679397583,539
8.867600679397583,229
8.867600679397583,107
8.96483564376831,139
8.96483564376831,4
8.96483564376831,50
8.96483564376831,29
8.96483564376831,122
8.96483564376831,132
8.96483564376831,352
8.96483564376831,262
8.96483564376831,163
8.96483564376831,353
9.060989379882812,42
9.060989379882812,223
9.060989379882812,100
9.060989379882812,109
9.060989379882812,29
9.060989379882812,66
9.060989379882812,37
9.060989379882812,12
9.060989379882812,662
9.157302141189575,0
9.15930700302124,67
9.15930700302124,144
9.15930700302124,61
9.15930700302124,393
9.15930700302124,192
9.15930700302124,229
9.15930700302124,130
9.15930700302124,89
9.15930700302124,0
9.264069318771362,57
9.264069318771362,29
9.264069318771362,54
9.264069318771362,21
9.266074657440186,122
9.266074657440186,205
9.266074657440186,959
9.266074657440186,386
9.266074657440186,4
9.266074657440186,143
9.367469787597656,545
9.367469787597656,56
9.367469787597656,40
9.367469787597656,396
9.367469787597656,13
9.367469787597656,16
9.367469787597656,171
9.367469787597656,156
9.367469787597656,68
9.367469787597656,42
9.457164287567139,108
9.457164287567139,0
9.457164287567139,83
9.457164287567139,89
9.457164287567139,41
9.457164287567139,132
9.457164287567139,20
9.457164287567139,61
9.457164287567139,190
9.457164287567139,138
9.56868577003479,368
9.56868577003479,3
9.56868577003479,78
9.56868577003479,16
9.56868577003479,384
9.56868577003479,85
9.56868577003479,10
9.56868577003479,13
9.56868577003479,104
9.56868577003479,126
9.664649963378906,841
9.664649963378906,5
9.664649963378906,21
9.664649963378906,90
9.664649963378906,338
9.664649963378906,12
9.664649963378906,11
9.664649963378906,151
9.664649963378906,2
9.664649963378906,41
9.776713609695435,113
9.776713609695435,190
9.776713609695435,17
9.776713609695435,395
9.776713609695435,30
9.776713609695435,0
9.776713609695435,17
9.776713609695435,92
9.776713609695435,285
9.776713609695435,119
9.776713609695435,0
9.87431287765503,8
9.87431287765503,17
9.87431287765503,20
9.87431287765503,0
9.87431287765503,0
9.87431287765503,0
9.87431287765503,71
9.87431287765503,129
9.87431287765503,274
9.87431287765503,12
9.983550071716309,6
9.983550071716309,0
9.983550071716309,0
9.983550071716309,0
9.983550071716309,0
9.983550071716309,0
9.983550071716309,6
9.983550071716309,5
9.983550071716309,25
9.983550071716309,0
10.079126834869385,19
10.079126834869385,47
10.079126834869385,21
10.079126834869385,3
10.079126834869385,2
10.079126834869385,18
10.079126834869385,13
10.079126834869385,34
10.079126834869385,0
10.079126834869385,0
10.189958810806274,7
10.189958810806274,0
10.189958810806274,25
10.189958810806274,0
10.189958810806274,4
10.189958810806274,0
10.189958810806274,2
10.189958810806274,0
10.189958810806274,14
10.189958810806274,0
10.286707162857056,6
10.286707162857056,0
10.286707162857056,0
10.286707162857056,0
10.286707162857056,4
10.286707162857056,0
10.286707162857056,0
10.286707162857056,14
10.286707162857056,0
10.286707162857056,0
10.391335487365723,11
10.391335487365723,0
10.391335487365723,12
10.391335487365723,0
10.391335487365723,0
10.391335487365723,0
10.391335487365723,0
10.391335487365723,0
10.391335487365723,0
10.391335487365723,0
10.48592495918274,3
10.48592495918274,0
10.48592495918274,2
10.48592495918274,0
10.493165969848633,0
10.493165969848633,0
10.493165969848633,0
10.493744373321533,0
10.493744373321533,0
10.493744373321533,4
10.595953464508057,0
10.595953464508057,14
10.595953464508057,54
10.595953464508057,0
10.595953464508057,0
10.595953464508057,17
10.595953464508057,0
10.595953464508057,15
10.59795880317688,0
10.59795880317688,21
10.699656009674072,0
10.699656009674072,39
10.699656009674072,0
10.699656009674072,9
10.699656009674072,5
10.699656009674072,9
10.700167417526245,13
10.700167417526245,52
10.700167417526245,40
10.700167417526245,0
10.778680086135864,9
10.778680086135864,3
10.778680086135864,0
10.778680086135864,0
10.778680086135864,0
10.778680086135864,0
10.778680086135864,0
10.778680086135864,0
10.778680086135864,0
10.873809099197388,2
10.873809099197388,0
10.873809099197388,0
10.873809099197388,2
10.873809099197388,0
10.873809099197388,2
10.873809099197388,0
10.873809099197388,0
10.873809099197388,2
10.969947099685669,8
10.969947099685669,0
10.969947099685669,0
10.969947099685669,11
10.969947099685669,0
10.969947099685669,0
10.969947099685669,0
10.969947099685669,1
10.969947099685669,7
11.073283433914185,9
11.073283433914185,0
11.073283433914185,0
11.073283433914185,7
11.073283433914185,0
11.073283433914185,4
11.073283433914185,2
11.073283433914185,0
11.073283433914185,0
11.073283433914185,4
11.167548179626465,0
11.167548179626465,0
11.167548179626465,8
11.167548179626465,0
11.167548179626465,5
11.167548179626465,19
11.167548179626465,0
11.167548179626465,5
11.167548179626465,2
11.254544734954834,11
11.254544734954834,0
11.254544734954834,5
11.254544734954834,1
11.254544734954834,12
11.254544734954834,10
11.254544734954834,11
11.254544734954834,2
11.254544734954834,0
11.254544734954834,6
11.366617202758789,11
11.366617202758789,0
11.366617202758789,16
11.366617202758789,5
11.366617202758789,1
11.366617202758789,14
11.366617202758789,0
11.366617202758789,5
11.366617202758789,0
11.46102523803711,0
11.46102523803711,3
11.46102523803711,0
11.46102523803711,0
11.46102523803711,0
11.46102523803711,0
11.46102523803711,0
11.46102523803711,9
11.46102523803711,0
11.46102523803711,0
11.556462526321411,2
11.556462526321411,0
11.556462526321411,0
11.556462526321411,0
11.556462526321411,0
11.556462526321411,15
11.556462526321411,9
11.556462526321411,8
11.556462526321411,0
11.556462526321411,10
11.665073871612549,0
11.665073871612549,0
11.665073871612549,0
11.665073871612549,0
11.665073871612549,5
11.665073871612549,3
11.665073871612549,5
11.665073871612549,2
11.665073871612549,2
11.665073871612549,4
11.761610507965088,3
11.761610507965088,1
11.761610507965088,6
11.761610507965088,0
11.761610507965088,6
11.761610507965088,0
11.761610507965088,5
11.761610507965088,0
11.761610507965088,12
11.761610507965088,12
11.857499361038208,9
11.857499361038208,0
11.857499361038208,17
11.857499361038208,0
11.857499361038208,6
11.857499361038208,0
11.857499361038208,0
11.857499361038208,0
11.857499361038208,1
11.857499361038208,1
11.972997188568115,7
11.972997188568115,0
11.972997188568115,8
11.972997188568115,0
11.972997188568115,26
11.972997188568115,0
11.972997188568115,0
11.972997188568115,5
11.972997188568115,0
11.972997188568115,1
12.065314769744873,0
12.065314769744873,0
12.065314769744873,0
12.065314769744873,0
12.065314769744873,13
12.065314769744873,0
12.065314769744873,1
12.065314769744873,0
12.065314769744873,0
12.065314769744873,14
12.160598993301392,1
12.160598993301392,0
12.160598993301392,1
12.160598993301392,0
12.160598993301392,3
12.160598993301392,2
12.160598993301392,0
12.176766157150269,0
12.176766157150269,0
12.176766157150269,0
12.280318260192871,5
12.280318260192871,0
12.280318260192871,4
12.280318260192871,17
12.280318260192871,22
12.280318260192871,11
12.280318260192871,1
12.280318260192871,5
12.280318260192871,0
12.280318260192871,6
12.367781639099121,6
12.367781639099121,12
12.367781639099121,3
12.367781639099121,26
12.367781639099121,0
12.367781639099121,10
12.367781639099121,10
12.367781639099121,12
12.367781639099121,2
12.367781639099121,6
12.478976249694824,0
12.478976249694824,0
12.478976249694824,0
12.478976249694824,0
12.478976249694824,0
12.478976249694824,0
12.478976249694824,5
12.478976249694824,0
12.478976249694824,0
12.478976249694824,11
12.57440996170044,0
12.57440996170044,1
12.57440996170044,5
12.57440996170044,5
12.57440996170044,0
12.57440996170044,0
12.57440996170044,0
12.57440996170044,0
12.57440996170044,11
12.57440996170044,0
12.686466693878174,8
12.686466693878174,11
12.686466693878174,0
12.686466693878174,1
12.686466693878174,0
12.686466693878174,0
12.686466693878174,9
12.686466693878174,0
12.686466693878174,0
12.686466693878174,2
12.784797668457031,0
12.786543607711792,1
12.786543607711792,18
12.786543607711792,0
12.786543607711792,0
12.786543607711792,19
12.786543607711792,13
12.786543607711792,4
12.786543607711792,4
12.786543607711792,1
12.876229286193848,7
12.876229286193848,5
12.876229286193848,2
12.876229286193848,4
12.876229286193848,11
12.876229286193848,10
12.876229286193848,0
12.876229286193848,0
12.876229286193848,13
12.876229286193848,3
12.981837034225464,8
12.981837034225464,13
12.981837034225464,13
12.981837034225464,0
12.981837034225464,45
12.981837034225464,0
12.981837034225464,1
12.983842611312866,0
12.983842611312866,0
13.067262649536133,0
13.067262649536133,0
13.067262649536133,9
13.067262649536133,2
13.067262649536133,2
13.067262649536133,0
13.067262649536133,1
13.067262649536133,0
13.067262649536133,0
13.067262649536133,0
13.163074493408203,0
13.163074493408203,0
13.163074493408203,0
13.163074493408203,3
13.163074493408203,1
13.163074493408203,0
13.163074493408203,0
13.163074493408203,0
13.163074493408203,1
13.27890944480896,8
13.27890944480896,0
13.27890944480896,0
13.27890944480896,0
13.27890944480896,0
13.27890944480896,0
13.27890944480896,7
13.27890944480896,1
13.27890944480896,20
13.27890944480896,0
13.27890944480896,0
13.379900693893433,0
13.379900693893433,0
13.379900693893433,7
13.379900693893433,0
13.38190507888794,13
13.38190507888794,3
13.38190507888794,0
13.38190507888794,0
13.38190507888794,0
13.465260982513428,13
13.465260982513428,2
13.465260982513428,2
13.465260982513428,13
13.465260982513428,7
13.465260982513428,12
13.465260982513428,0
13.465260982513428,12
13.465260982513428,0
13.465260982513428,0
13.577665090560913,1
13.577665090560913,3
13.577665090560913,0
13.578172445297241,14
13.578172445297241,3
13.578172445297241,1
13.578172445297241,0
13.578172445297241,7
13.578172445297241,0
13.578172445297241,0
13.67639708518982,0
13.67639708518982,0
13.67639708518982,0
13.67639708518982,3
13.67639708518982,0
13.67639708518982,0
13.67639708518982,0
13.67639708518982,0
13.67639708518982,1
13.678401947021484,2
13.779311180114746,1
13.779311180114746,2
13.779311180114746,4
13.779311180114746,0
13.779311180114746,0
13.779311180114746,12
13.779311180114746,0
13.779311180114746,0
13.781316041946411,0
13.781316041946411,0
13.878323554992676,0
13.878323554992676,0
13.878323554992676,3
13.878323554992676,21
13.878323554992676,0
13.878323554992676,3
13.878323554992676,6
13.878323554992676,7
13.878323554992676,0
13.878323554992676,0
13.973762512207031,2
13.973762512207031,3
13.973762512207031,14
13.973762512207031,8
13.973762512207031,4
13.973762512207031,0
13.973762512207031,10
13.973762512207031,4
13.973762512207031,19
14.084252119064331,0
14.084252119064331,7
14.084252119064331,1
14.084252119064331,10
14.084252119064331,1
14.084252119064331,0
14.084252119064331,2
14.084252119064331,9
14.084252119064331,0
14.084252119064331,4
14.084252119064331,2
14.180835962295532,7
14.180835962295532,0
14.180835962295532,0
14.180835962295532,0
14.180835962295532,7
14.180835962295532,0
14.180835962295532,2
14.180835962295532,3
14.180835962295532,0
14.28278636932373,0
14.28278636932373,0
14.28278636932373,0
14.28278636932373,3
14.284791469573975,0
14.284791469573975,3
14.284791469573975,0
14.284791469573975,0
14.284791469573975,0
14.284791469573975,0
14.371052265167236,0
14.371052265167236,0
14.371052265167236,0
14.371052265167236,0
14.371052265167236,0
14.371052265167236,0
14.371052265167236,0
14.371052265167236,2
14.371052265167236,0
14.371052265167236,0
14.466273784637451,0
14.466273784637451,0
14.466273784637451,0
14.466273784637451,0
14.466273784637451,10
14.466273784637451,2
14.466273784637451,4
14.466273784637451,6
14.466273784637451,6
14.562042236328125,0
14.562042236328125,7
14.562042236328125,0
14.562042236328125,2
14.562042236328125,0
14.562042236328125,10
14.562042236328125,10
14.577766418457031,2
14.577766418457031,0
14.577766418457031,6
14.67320966720581,3
14.67320966720581,7
14.67320966720581,1
14.67320966720581,8
14.67320966720581,0
14.67320966720581,2
14.67320966720581,0
14.67320966720581,22
14.67320966720581,2
14.67320966720581,0
14.768091440200806,0
14.768091440200806,3
14.768091440200806,5
14.768091440200806,0
14.768091440200806,8
14.768091440200806,5
14.768091440200806,0
14.768091440200806,8
14.768091440200806,3
14.863605737686157,0
14.863605737686157,1
14.863605737686157,1
14.863605737686157,2
14.863605737686157,2
14.863605737686157,0
14.863605737686157,0
14.863605737686157,16
14.863605737686157,0
14.863605737686157,0
14.958961963653564,0
14.958961963653564,4
14.958961963653564,0
14.958961963653564,0
14.958961963653564,0
14.958961963653564,0
14.958961963653564,0
14.958961963653564,8
14.958961963653564,0
15.054167747497559,0
15.054167747497559,0
15.054167747497559,0
15.054167747497559,4
15.054167747497559,7
15.054167747497559,0
15.054167747497559,6
15.054167747497559,1
15.054167747497559,7
15.054167747497559,0
15.148833513259888,0
15.148833513259888,0
15.148833513259888,0
15.148833513259888,2
15.148833513259888,8
15.148833513259888,0
15.148833513259888,3
15.148833513259888,0
15.148833513259888,7
15.255085229873657,2
15.255085229873657,6
15.255085229873657,3
15.255085229873657,3
15.255085229873657,12
15.255085229873657,4
15.255085229873657,0
15.255085229873657,7
15.255085229873657,7
15.255085229873657,15
15.349799633026123,0
15.349799633026123,0
15.349799633026123,0
15.349799633026123,0
15.349799633026123,0
15.349799633026123,0
15.349799633026123,0
15.354899644851685,0
15.354899644851685,0
15.449889659881592,0
15.449889659881592,0
15.449889659881592,0
15.449889659881592,0
15.449889659881592,0
15.449889659881592,0
15.449889659881592,0
15.449889659881592,1
15.449889659881592,0
15.449889659881592,0
15.545514106750488,0
15.545514106750488,0
15.545514106750488,0
15.545514106750488,0
15.545514106750488,1
15.545514106750488,0
15.545514106750488,17
15.545514106750488,0
15.545514106750488,0
15.545514106750488,3
15.640896797180176,1
15.640896797180176,2
15.640896797180176,0
15.640896797180176,2
15.640896797180176,1
15.640896797180176,5
15.640896797180176,4
15.640896797180176,10
15.640896797180176,2
15.735809803009033,5
15.735809803009033,0
15.735809803009033,0
15.735809803009033,3
15.735809803009033,13
15.735809803009033,2
15.735809803009033,2
15.735809803009033,9
15.735809803009033,12
15.830251455307007,11
15.830251455307007,1
15.830251455307007,1
15.830251455307007,5
15.830251455307007,0
15.830251455307007,21
15.830251455307007,0
15.830251455307007,0
15.830251455307007,0
15.830251455307007,0
15.925822019577026,58
15.925822019577026,0
15.925822019577026,10
15.925822019577026,0
15.925822019577026,38
15.925822019577026,14
15.925822019577026,1
15.925822019577026,11
15.925822019577026,8
16.020787477493286,243
16.020787477493286,30
16.020787477493286,137
16.020787477493286,2
16.020787477493286,14
16.020787477493286,50
16.020787477493286,2
16.020787477493286,4
16.020787477493286,30
16.11595916748047,27
16.11595916748047,18
16.11595916748047,89
16.11595916748047,121
16.11595916748047,80
16.11595916748047,0
16.11595916748047,5
16.11595916748047,10
16.11595916748047,51
16.11595916748047,3
16.21183204650879,48
16.21183204650879,10
16.21183204650879,13
16.21183204650879,0
16.21183204650879,832
16.21183204650879,175
16.21183204650879,10
16.21183204650879,7
16.21183204650879,18
16.21183204650879,8
16.32211661338806,890
16.32211661338806,0
16.32211661338806,26
16.32211661338806,3
16.32211661338806,120
16.32211661338806,621
16.32211661338806,206
16.32211661338806,53
16.32211661338806,0
16.32211661338806,11
16.4169180393219,154
16.4169180393219,67
16.4169180393219,133
16.4169180393219,322
16.4169180393219,88
16.4169180393219,57
16.4169180393219,5
16.4169180393219,325
16.4169180393219,5
16.527937412261963,155
16.527937412261963,2
16.527937412261963,88
16.527937412261963,345
16.527937412261963,406
16.527937412261963,173
16.527937412261963,66
16.527937412261963,49
16.527937412261963,78
16.527937412261963,975
16.623111963272095,1023
16.623111963272095,55
16.623111963272095,170
16.623111963272095,78
16.623111963272095,6
16.623111963272095,117
16.623111963272095,47
16.623111963272095,447
16.623111963272095,91
16.623111963272095,147
16.718215465545654,21
16.718215465545654,180
16.718215465545654,280
16.718215465545654,317
16.718215465545654,218
16.718215465545654,15
16.718215465545654,348
16.718215465545654,152
16.718215465545654,50
16.718215465545654,403
16.82956862449646,91
16.82956862449646,16
16.82956862449646,4
16.82956862449646,257
16.82956862449646,194
16.82956862449646,16
16.82956862449646,79
16.82956862449646,18
16.82956862449646,209
16.82956862449646,23
16.924912691116333,394
16.924912691116333,128
16.924912691116333,92
16.924912691116333,102
16.924912691116333,192
16.924912691116333,98
16.924912691116333,399
16.924912691116333,158
16.924912691116333,155
16.924912691116333,264
17.020017862319946,199
17.020017862319946,53
17.020017862319946,165
17.020017862319946,350
17.020017862319946,4
17.020017862319946,49
17.020017862319946,27
17.020017862319946,384
17.020017862319946,90
17.130966186523438,216
17.130966186523438,120
17.130966186523438,275
17.130966186523438,344
17.130966186523438,139
17.130966186523438,102
17.130966186523438,236
17.130966186523438,30
17.130966186523438,464
17.130966186523438,17
17.226398468017578,4
17.226398468017578,216
17.226398468017578,504
17.226398468017578,189
17.226398468017578,222
17.226398468017578,420
17.226398468017578,180
17.226398468017578,38
17.226398468017578,87
17.226398468017578,623
17.321490049362183,228
17.321490049362183,13
17.321490049362183,1023
17.321490049362183,90
17.321490049362183,359
17.321490049362183,87
17.321490049362183,212
17.321490049362183,12
17.321490049362183,20
17.321490049362183,87
17.41655135154724,945
17.41655135154724,731
17.41655135154724,810
17.41655135154724,74
17.41655135154724,328
17.41655135154724,138
17.41655135154724,466
17.41655135154724,124
17.41655135154724,180
17.527305126190186,239
17.527305126190186,427
17.527305126190186,25
17.527305126190186,124
17.527305126190186,94
17.527305126190186,650
17.527305126190186,84
17.527305126190186,713
17.527305126190186,87
17.527305126190186,264
17.622011423110962,226
17.622011423110962,13
17.622011423110962,89
17.622011423110962,121
17.622011423110962,80
17.622011423110962,277
17.622011423110962,300
17.622011423110962,226
17.622011423110962,431
17.622011423110962,75
17.717098236083984,132
17.717098236083984,281
17.717098236083984,126
17.717098236083984,396
17.717098236083984,298
17.717098236083984,135
17.717098236083984,33
17.717098236083984,300
17.717098236083984,143
17.81243872642517,286
17.81243872642517,70
17.81243872642517,274
17.81243872642517,110
17.81243872642517,93
17.81243872642517,636
17.81243872642517,86
17.81243872642517,250
17.81243872642517,21
17.907461404800415,396
17.907461404800415,94
17.907461404800415,197
17.907461404800415,390
17.907461404800415,222
17.907461404800415,228
17.907461404800415,34
17.907461404800415,16
17.907461404800415,135
18.002148628234863,166
18.002148628234863,61
18.002148628234863,34
18.002148628234863,91
18.002148628234863,6
18.002148628234863,105
18.002148628234863,24
18.002148628234863,43
18.002148628234863,226
18.097164154052734,56
18.097164154052734,181
18.097164154052734,33
18.097164154052734,83
18.098156690597534,132
18.098156690597534,95
18.098156690597534,250
18.098156690597534,79
18.098156690597534,104
18.098156690597534,72
18.192865133285522,140
18.192865133285522,81
18.192865133285522,64
18.192865133285522,66
18.192865133285522,61
18.192865133285522,9
18.192865133285522,37
18.192865133285522,87
18.192865133285522,238
18.192865133285522,97
18.30297350883484,295
18.30297350883484,138
18.30297350883484,37
18.30297350883484,264
18.30297350883484,12
18.30297350883484,232
18.30297350883484,24
18.30297350883484,22
18.30297350883484,90
18.30297350883484,70
18.398988723754883,43
18.398988723754883,17
18.398988723754883,125
18.398988723754883,71
18.398988723754883,49
18.398988723754883,3
18.398988723754883,253
18.398988723754883,80
18.398988723754883,25
18.398988723754883,35
18.50356149673462,129
18.50356149673462,141
18.50356149673462,179
18.50356149673462,91
18.50356149673462,178
18.50356149673462,131
18.50356149673462,95
18.50356149673462,179
18.50356149673462,51
18.50356149673462,382
18.603829383850098,25
18.603829383850098,0
18.603829383850098,321
18.603829383850098,6
18.603829383850098,49
18.603829383850098,211
18.603829383850098,224
18.603829383850098,58
18.603829383850098,0
18.603829383850098,0
18.699092864990234,1
18.699092864990234,191
18.699092864990234,138
18.699092864990234,687
18.699092864990234,191
18.699092864990234,36
18.699092864990234,24
18.699092864990234,28
18.699092864990234,0
18.699092864990234,237
18.805882930755615,47
18.805882930755615,122
18.805882930755615,167
18.805882930755615,184
18.805882930755615,515
18.805882930755615,99
18.805882930755615,266
18.805882930755615,19
18.805882930755615,35
18.900540351867676,120
18.900540351867676,88
18.900540351867676,102
18.900540351867676,142
18.900540351867676,124
18.900540351867676,116
18.900540351867676,14
18.900540351867676,39
18.900540351867676,10
18.995047330856323,217
18.995047330856323,131
18.995047330856323,4
18.995047330856323,282
18.995047330856323,16
18.995047330856323,123
18.995047330856323,92
18.995047330856323,33
18.995047330856323,0
18.995047330856323,109
19.0801784992218,41
19.0801784992218,95
19.0801784992218,101
19.095959663391113,99
19.095959663391113,80
19.095959663391113,21
19.095959663391113,22
19.095959663391113,191
19.095959663391113,54
19.17543339729309,257
19.17543339729309,16
19.17543339729309,129
19.17543339729309,85
19.17543339729309,131
19.17543339729309,267
19.17543339729309,123
19.17543339729309,127
19.17543339729309,233
19.27065134048462,116
19.27065134048462,52
19.27065134048462,10
19.27065134048462,44
19.27065134048462,27
19.27065134048462,47
19.27065134048462,39
19.27065134048462,38
19.27065134048462,351
19.27065134048462,8
19.365650177001953,236
19.365650177001953,29
19.365650177001953,16
19.365650177001953,0
19.365650177001953,80
19.365650177001953,34
19.365650177001953,77
19.365650177001953,8
19.365650177001953,309
19.46068835258484,243
19.46068835258484,141
19.46068835258484,4
19.46068835258484,68
19.46068835258484,124
19.46068835258484,55
19.46068835258484,101
19.46068835258484,225
19.46068835258484,54
19.55636715888977,147
19.55636715888977,167
19.55636715888977,7
19.55636715888977,0
19.55636715888977,94
19.55636715888977,53
19.55636715888977,263
19.55636715888977,55
19.55636715888977,242
19.65099000930786,86
19.65099000930786,14
19.65099000930786,191
19.65099000930786,553
19.65099000930786,91
19.666743278503418,245
19.666743278503418,122
19.666743278503418,211
19.666743278503418,23
19.666743278503418,235
19.761604070663452,157
19.761604070663452,50
19.761604070663452,0
19.761604070663452,45
19.761604070663452,277
19.761604070663452,105
19.761604070663452,1
19.761604070663452,79
19.761604070663452,5
19.761604070663452,6
19.856398820877075,24
19.856398820877075,11
19.856398820877075,0
19.856398820877075,0
19.856398820877075,27
19.856398820877075,11
19.856398820877075,1
19.856398820877075,39
19.856398820877075,14
19.856398820877075,18
19.967161655426025,6
19.967161655426025,19
19.967161655426025,0
19.967161655426025,80
19.967161655426025,15
19.967161655426025,0
19.967161655426025,2
19.967161655426025,26
19.967161655426025,161
19.967161655426025,30
20.062368154525757,14
20.062368154525757,16
20.062368154525757,0
20.062368154525757,12
20.062368154525757,8
20.062368154525757,22
20.062368154525757,24
20.062368154525757,7
20.062368154525757,0
20.062368154525757,53
20.159018754959106,0
20.159018754959106,39
20.159018754959106,0
20.159018754959106,8
20.159018754959106,0
20.159018754959106,0
20.159018754959106,7
20.159018754959106,46
20.159018754959106,80
20.252724409103394,12
20.252724409103394,0
20.252724409103394,37
20.252724409103394,12
20.252724409103394,22
20.252724409103394,2
20.252724409103394,4
20.252724409103394,0
20.252724409103394,53
20.34917902946472,17
20.34917902946472,8
20.34917902946472,32
20.34917902946472,1
20.34917902946472,15
20.34917902946472,64
20.34917902946472,22
20.34917902946472,0
20.34917902946472,0
20.34917902946472,6
20.443693161010742,34
20.443693161010742,0
20.443693161010742,1
20.443693161010742,0
20.443693161010742,0
20.443693161010742,0
20.443693161010742,0
20.443693161010742,11
20.443693161010742,11
20.538317441940308,31
20.538317441940308,2
20.538317441940308,0
20.538317441940308,10
20.538317441940308,11
20.538317441940308,6
20.538317441940308,27
20.538317441940308,19
20.538317441940308,1
20.63337016105652,7
20.63337016105652,0
20.63337016105652,40
20.63337016105652,15
20.63337016105652,8
20.63337016105652,0
20.63337016105652,6
20.63337016105652,8
20.63337016105652,11
20.728068113327026,0
20.728068113327026,0
20.728068113327026,5
20.728068113327026,7
20.728068113327026,0
20.728068113327026,5
20.728068113327026,3
20.728068113327026,7
20.728068113327026,24
20.82269597053528,2
20.82269597053528,0
20.82269597053528,1
20.82269597053528,0
20.82269597053528,0
20.82269597053528,0
20.82269597053528,2
20.82269597053528,0
20.82269597053528,0
20.82269597053528,0
20.91788959503174,0
20.91788959503174,0
20.91788959503174,0
20.91788959503174,0
20.91788959503174,0
20.91788959503174,0
20.91788959503174,0
20.91788959503174,0
20.91788959503174,0
21.01280379295349,0
21.01280379295349,0
21.01280379295349,0
21.01280379295349,0
21.01280379295349,0
21.01280379295349,0
21.01280379295349,0
21.01280379295349,0
21.01280379295349,0
21.107795238494873,0
21.107795238494873,2
21.107795238494873,0
21.107795238494873,0
21.107795238494873,0
21.107795238494873,1
21.107795238494873,0
21.107795238494873,0
21.107795238494873,0
21.107795238494873,6
21.202386140823364,0
21.202386140823364,5
21.202386140823364,1
21.202386140823364,5
21.202386140823364,0
21.202386140823364,2
21.202386140823364,2
21.202386140823364,1
21.202386140823364,0
21.298349618911743,8
21.298349618911743,2
21.298349618911743,7
21.298349618911743,0
21.298349618911743,3
21.298349618911743,1
21.298349618911743,8
21.298349618911743,0
21.298349618911743,6
21.298349618911743,0
21.398443460464478,3
21.398443460464478,0
21.398443460464478,4
21.398443460464478,0
21.398443460464478,0
21.398443460464478,0
21.398443460464478,0
21.398443460464478,0
21.398443460464478,3
21.48834729194641,0
21.48834729194641,2
21.48834729194641,8
21.48834729194641,0
21.48834729194641,0
21.48834729194641,0
21.48834729194641,0
21.48834729194641,0
21.48834729194641,0
21.48834729194641,0
21.583099842071533,0
21.583099842071533,0
21.583099842071533,9
21.583099842071533,27
21.583099842071533,10
21.583099842071533,3
21.583099842071533,0
21.583099842071533,0
21.583099842071533,13
21.583099842071533,2
21.69549822807312,1
21.69549822807312,0
21.69549822807312,0
21.69549822807312,0
21.69549822807312,11
21.69549822807312,0
21.69549822807312,1
21.69549822807312,1
21.69549822807312,2
21.69549822807312,0
21.790070056915283,8
21.790070056915283,1
21.790070056915283,5
21.790070056915283,0
21.790070056915283,0
21.790070056915283,0
21.790070056915283,6
21.790070056915283,6
21.790070056915283,12
21.88708233833313,1
21.88708233833313,6
21.88708233833313,2
21.88708233833313,9
21.88708233833313,0
21.88708233833313,3
21.88708233833313,4
21.88708233833313,5
21.88708233833313,2
21.88708233833313,0
21.995089292526245,0
21.995089292526245,0
21.995089292526245,0
21.995089292526245,5
21.995089292526245,0
21.995089292526245,9
21.995089292526245,0
21.995089292526245,1
21.995089292526245,0
21.995089292526245,0
22.091668844223022,0
22.091668844223022,6
22.091668844223022,4
22.091668844223022,0
22.091668844223022,5
22.091668844223022,0
22.091668844223022,2
22.091668844223022,0
22.091668844223022,0
22.091668844223022,0
22.186439990997314,5
22.186439990997314,0
22.186439990997314,0
22.186439990997314,0
22.186439990997314,0
22.186439990997314,0
22.186439990997314,0
22.186439990997314,1
22.186439990997314,4
22.186439990997314,0
22.281193733215332,0
22.281193733215332,0
22.281193733215332,0
22.281193733215332,0
22.281193733215332,1
22.281193733215332,1
22.281193733215332,1
22.281193733215332,0
22.281193733215332,5
22.391916751861572,0
22.391916751861572,8
22.391916751861572,1
22.391916751861572,0
22.391916751861572,0
22.391916751861572,1
22.391916751861572,3
22.391916751861572,8
22.391916751861572,1
22.391916751861572,6
22.486950397491455,4
22.486950397491455,11
22.486950397491455,1
22.486950397491455,4
22.486950397491455,0
22.486950397491455,1
22.486950397491455,0
22.486950397491455,0
22.486950397491455,0
22.486950397491455,0
22.582258701324463,0
22.582258701324463,0
22.582258701324463,0
22.582258701324463,0
22.582258701324463,0
22.582258701324463,0
22.582258701324463,0
22.582258701324463,5
22.582258701324463,0
22.678128957748413,0
22.678128957748413,0
22.678128957748413,0
22.678128957748413,0
22.678128957748413,0
22.678128957748413,0
22.678128957748413,0
22.678128957748413,0
22.678128957748413,4
22.77306842803955,0
22.77306842803955,19
22.77306842803955,1
22.77306842803955,0
22.77306842803955,15
22.77306842803955,2
22.77306842803955,4
22.77306842803955,10
22.77306842803955,0
22.77306842803955,0
22.852409601211548,0
22.852409601211548,0
22.852409601211548,1
22.852409601211548,0
22.852409601211548,2
22.852409601211548,6
22.852409601211548,7
22.852409601211548,3
22.852409601211548,5
22.95834517478943,1
22.95834517478943,2
22.95834517478943,0
22.95834517478943,3
22.95834517478943,0
22.95834517478943,0
22.95834517478943,3
22.95834517478943,7
22.95834517478943,2
23.058587312698364,7
23.058587312698364,17
23.058587312698364,4
23.058587312698364,0
23.058587312698364,9
23.058587312698364,2
23.058587312698364,8
23.058587312698364,3
23.058587312698364,0
23.14909863471985,0
23.14909863471985,1
23.153714179992676,0
23.153714179992676,0
23.153714179992676,10
23.153714179992676,0
23.153714179992676,3
23.153714179992676,8
23.153714179992676,0
23.153714179992676,0
23.24358820915222,1
23.24358820915222,0
23.24358820915222,0
23.24358820915222,0
23.24358820915222,0
23.24358820915222,11
23.24358820915222,0
23.24358820915222,0
23.24358820915222,0
23.32781195640564,0
23.32781195640564,0
23.32781195640564,3
23.32781195640564,36
23.32781195640564,0
23.32781195640564,0
23.32781195640564,0
23.32781195640564,0
23.32781195640564,1
23.422556400299072,0
23.422556400299072,0
23.422556400299072,0
23.422556400299072,0
23.422556400299072,0
23.422556400299072,3
23.422556400299072,25
23.422556400299072,23
23.422556400299072,12
23.422556400299072,5
23.51768922805786,6
23.51768922805786,3
23.51768922805786,3
23.51768922805786,0
23.51768922805786,8
23.51768922805786,0
23.51768922805786,13
23.51768922805786,9
23.51768922805786,15
23.61299180984497,0
23.61299180984497,3
23.61299180984497,0
23.61299180984497,6
23.61299180984497,0
23.61299180984497,0
23.61299180984497,0
23.61299180984497,0
23.61299180984497,6
23.707879304885864,0
23.707879304885864,0
23.707879304885864,0
23.707879304885864,0
23.707879304885864,0
23.707879304885864,0
23.707879304885864,0
23.707879304885864,0
23.707879304885864,0
23.802700757980347,0
23.802700757980347,0
23.802700757980347,0
23.802700757980347,0
23.802700757980347,0
23.802700757980347,0
23.802700757980347,0
23.802700757980347,0
23.802700757980347,0
23.802700757980347,0
23.897467613220215,0
23.897467613220215,0
23.897467613220215,0
23.897467613220215,0
23.897467613220215,0
23.897467613220215,0
23.897467613220215,0
23.897467613220215,5
23.897467613220215,0
24.004148244857788,0
24.004148244857788,0
24.004148244857788,0
24.004148244857788,1
24.004148244857788,0
24.004148244857788,5
24.004148244857788,0
24.004148244857788,6
24.004148244857788,0
24.10262632369995,11
24.10262632369995,0
24.10262632369995,8
24.10262632369995,1
24.10262632369995,0
24.10262632369995,0
24.10262632369995,2
24.10262632369995,2
24.10262632369995,7
24.10262632369995,2
24.193979263305664,8
24.19958257675171,0
24.19958257675171,4
24.19958257675171,0
24.19958257675171,0
24.19958257675171,0
24.19958257675171,7
24.19958257675171,0
24.19958257675171,0
24.19958257675171,0
24.29568839073181,6
24.29568839073181,0
24.29568839073181,0
24.29568839073181,0
24.29568839073181,0
24.29568839073181,0
24.29568839073181,3
24.29568839073181,0
24.29568839073181,0
24.389942407608032,0
24.389942407608032,0
24.389942407608032,0
24.389942407608032,4
24.389942407608032,4
24.389942407608032,0
24.389942407608032,0
24.389942407608032,0
24.389942407608032,0
24.389942407608032,0
24.485232830047607,0
24.485232830047607,0
24.485232830047607,0
24.485232830047607,0
24.485232830047607,2
24.485232830047607,0
24.485232830047607,0
24.485232830047607,0
24.485232830047607,0
24.579235315322876,0
24.579235315322876,0
24.579235315322876,0
24.579235315322876,0
24.579235315322876,0
24.579235315322876,3
24.579235315322876,0
24.579235315322876,0
24.579235315322876,5
24.67382287979126,9
24.67382287979126,1
24.67382287979126,7
24.67382287979126,12
24.67382287979126,4
24.67382287979126,0
24.67382287979126,0
24.67382287979126,0
24.67382287979126,8
24.67382287979126,4
24.76884698867798,9
24.76884698867798,0
24.76884698867798,7
24.76884698867798,0
24.76884698867798,5
24.76884698867798,0
24.76884698867798,4
24.76884698867798,1
24.76884698867798,0
24.76884698867798,0
24.863688468933105,0
24.863688468933105,0
24.863688468933105,4
24.863688468933105,0
24.863688468933105,1
24.863688468933105,0
24.863688468933105,0
24.863688468933105,0
24.863688468933105,8
24.958641290664673,7
24.958641290664673,0
24.958641290664673,0
24.958641290664673,0
24.958641290664673,0
24.958641290664673,0
24.958641290664673,0
24.958641290664673,10
24.958641290664673,2
24.958641290664673,0
25.06925392150879,0
25.06925392150879,0
25.06925392150879,0
25.06925392150879,0
25.06925392150879,3
25.06925392150879,0
25.06925392150879,0
25.06925392150879,0
25.06925392150879,0
25.164740800857544,0
25.164740800857544,0
25.164740800857544,0
25.164740800857544,14
25.164740800857544,0
25.164740800857544,2
25.164740800857544,3
25.164740800857544,0
25.164740800857544,0
25.164740800857544,2
25.260034561157227,0
25.260034561157227,7
25.260034561157227,0
25.260034561157227,5
25.260034561157227,0
25.260034561157227,3
25.260034561157227,1
25.260034561157227,7
25.260034561157227,3
25.260034561157227,6
25.354979991912842,0
25.354979991912842,1
25.354979991912842,0
25.354979991912842,2
25.354979991912842,1
25.354979991912842,4
25.354979991912842,0
25.354979991912842,1
25.354979991912842,5
25.4497172832489,0
25.4497172832489,0
25.4497172832489,1
25.4497172832489,0
25.4497172832489,3
25.4497172832489,0
25.4497172832489,0
25.4497172832489,0
25.4497172832489,0
25.4497172832489,0
25.555424690246582,0
25.555424690246582,0
25.555424690246582,0
25.555424690246582,0
25.555424690246582,0
25.555424690246582,2
25.555424690246582,0
25.555424690246582,0
25.555424690246582,0
25.650242567062378,0
25.650242567062378,0
25.650242567062378,0
25.650242567062378,0
25.650242567062378,0
25.650242567062378,0
25.650242567062378,0
25.650242567062378,0
25.650242567062378,0
25.650242567062378,0
25.744869232177734,0
25.744869232177734,0
25.744869232177734,17
25.744869232177734,0
25.744869232177734,0
25.744869232177734,0
25.744869232177734,2
25.744869232177734,0
25.744869232177734,3
25.829479694366455,2
25.829479694366455,6
25.829479694366455,2
25.829479694366455,2
25.829479694366455,1
25.829479694366455,10
25.829479694366455,0
25.829479694366455,6
25.829479694366455,3
25.92445659637451,3
25.92445659637451,3
25.92445659637451,0
25.92445659637451,0
25.92445659637451,0
25.92445659637451,0
25.92445659637451,0
25.92445659637451,0
25.92445659637451,0
26.01928973197937,0
26.01928973197937,0
26.01928973197937,0
26.01928973197937,0
26.01928973197937,1
26.01928973197937,6
26.01928973197937,1
26.01928973197937,0
26.01928973197937,5
26.01928973197937,8
26.114084482192993,1
26.114084482192993,0
26.114084482192993,0
26.114084482192993,0
26.114084482192993,0
26.114084482192993,4
26.114084482192993,13
26.114084482192993,7
26.114084482192993,1
26.209585428237915,4
26.209585428237915,0
26.209585428237915,0
26.209585428237915,0
26.209585428237915,2
26.209585428237915,0
26.209585428237915,0
26.209585428237915,23
26.209585428237915,12
26.304264307022095,19
26.304264307022095,0
26.304264307022095,0
26.304264307022095,0
26.304264307022095,0
26.304264307022095,124
26.304264307022095,6
26.304264307022095,0
26.304264307022095,2
26.304264307022095,0
26.399290084838867,0
26.399290084838867,41
26.415050268173218,21
26.415050268173218,0
26.415050268173218,0
26.415050268173218,0
26.415050268173218,0
26.415050268173218,0
26.415050268173218,0
26.493919134140015,3
26.493919134140015,6
26.493919134140015,0
26.493919134140015,0
26.493919134140015,0
26.493919134140015,0
26.509687185287476,0
26.509687185287476,6
26.509687185287476,2
26.509687185287476,23
26.60439968109131,19
26.60439968109131,0
26.60439968109131,14
26.60439968109131,0
26.60439968109131,0
26.60439968109131,0
26.60439968109131,1
26.60439968109131,0
26.60439968109131,1
26.699198484420776,0
26.699198484420776,0
26.699198484420776,0
26.699198484420776,0
26.699198484420776,1
26.699198484420776,0
26.699198484420776,0
26.699198484420776,0
26.699198484420776,0
26.79423427581787,0
26.79423427581787,0
26.79423427581787,0
26.79423427581787,6
26.79423427581787,2
26.7950656414032,0
26.7950656414032,5
26.7950656414032,5
26.7950656414032,0
26.7950656414032,0
26.890480041503906,13
26.890480041503906,0
26.890480041503906,10
26.890480041503906,1
26.890480041503906,0
26.890480041503906,3
26.890480041503906,0
26.890480041503906,0
26.890480041503906,2
26.890480041503906,0
26.995171070098877,23
26.995171070098877,0
26.995171070098877,0
26.995171070098877,0
26.995171070098877,0
26.995171070098877,0
26.995171070098877,0
26.995171070098877,0
26.995171070098877,0
26.995171070098877,2
27.095903158187866,0
27.095903158187866,19
27.095903158187866,91
27.095903158187866,0
27.095903158187866,0
27.095903158187866,13
27.09899663925171,2
27.09899663925171,152
27.09899663925171,158
27.19198179244995,39
27.19198179244995,39
27.19198179244995,6
27.19198179244995,81
27.19198179244995,253
27.19198179244995,51
27.19198179244995,7
27.19198179244995,12
27.19198179244995,29
27.19198179244995,25
27.30210781097412,35
27.30210781097412,107
27.30210781097412,66
27.30210781097412,0
27.30210781097412,22
27.30210781097412,123
27.30210781097412,57
27.30210781097412,231
27.30210781097412,45
27.30210781097412,90
27.397175788879395,20
27.397175788879395,79
27.397175788879395,68
27.397175788879395,6
27.397175788879395,24
27.397175788879395,283
27.397175788879395,266
27.397175788879395,74
27.397175788879395,136
27.397175788879395,195
27.492876768112183,307
27.492876768112183,487
27.492876768112183,183
27.492876768112183,114
27.492876768112183,170
27.492876768112183,243
27.492876768112183,171
27.492876768112183,565
27.492876768112183,61
27.58775234222412,216
27.58775234222412,377
27.58775234222412,154
27.58775234222412,174
27.58775234222412,251
27.58775234222412,717
27.58775234222412,262
27.58775234222412,92
27.58775234222412,405
27.58775234222412,26
27.683175563812256,173
27.683175563812256,677
27.683175563812256,40
27.683175563812256,128
27.683175563812256,609
27.683175563812256,172
27.683175563812256,50
27.683175563812256,154
27.683175563812256,136
27.777313947677612,562
27.777313947677612,142
27.777313947677612,561
27.777313947677612,259
27.777313947677612,334
27.777313947677612,72
27.777313947677612,498
27.777313947677612,130
27.777313947677612,329
27.777313947677612,210
27.87216067314148,354
27.87216067314148,492
27.87216067314148,351
27.87216067314148,595
27.87216067314148,224
27.87216067314148,107
27.87216067314148,329
27.87216067314148,454
27.87216067314148,688
27.967523097991943,115
27.967523097991943,176
27.967523097991943,210
27.967523097991943,50
27.967523097991943,8
27.967523097991943,18
27.967523097991943,202
27.967523097991943,87
27.967523097991943,86
27.967523097991943,76
28.063003540039062,9
28.063003540039062,308
28.063003540039062,24
28.063003540039062,43
28.063003540039062,591
28.063003540039062,262
28.063003540039062,224
28.063003540039062,55
28.063003540039062,267
28.15761137008667,233
28.15761137008667,34
28.15761137008667,558
28.15761137008667,194
28.15761137008667,98
28.15761137008667,378
28.15761137008667,90
28.15761137008667,286
28.15761137008667,178
28.252941846847534,90
28.252941846847534,26
28.252941846847534,482
28.252941846847534,136
28.252941846847534,0
28.252941846847534,36
28.252941846847534,236
28.252941846847534,122
28.252941846847534,154
28.252941846847534,18
28.363750219345093,675
28.363750219345093,275
28.363750219345093,301
28.363750219345093,148
28.363750219345093,139
28.363750219345093,85
28.363750219345093,3
28.363750219345093,56
28.363750219345093,233
28.363750219345093,56
28.45915699005127,190
28.45915699005127,325
28.45915699005127,131
28.45915699005127,268
28.45915699005127,2
28.45915699005127,614
28.45915699005127,11
28.45915699005127,43
28.45915699005127,12
28.571196794509888,391
28.571196794509888,20
28.571196794509888,55
28.571196794509888,110
28.571196794509888,307
28.571962594985962,524
28.571962594985962,223
28.571962594985962,222
28.571962594985962,162
28.571962594985962,276
28.665096759796143,82
28.665096759796143,107
28.665096759796143,343
28.665096759796143,34
28.665096759796143,119
28.665096759796143,66
28.665096759796143,290
28.665096759796143,154
28.665096759796143,165
28.665096759796143,10
28.775732278823853,18
28.775732278823853,11
28.775732278823853,84
28.775732278823853,490
28.775732278823853,23
28.775732278823853,49
28.775732278823853,74
28.775732278823853,103
28.775732278823853,40
28.775732278823853,298
28.775732278823853,9
28.871726512908936,105
28.871726512908936,40
28.871726512908936,99
28.871726512908936,243
28.871726512908936,60
28.871726512908936,395
28.871726512908936,613
28.871726512908936,131
28.871726512908936,12
28.965386629104614,94
28.965386629104614,3
28.965386629104614,51
28.965386629104614,55
28.965386629104614,400
28.965386629104614,5
28.965386629104614,28
28.965386629104614,10
28.965386629104614,50
28.965386629104614,65
29.060420751571655,2
29.060420751571655,137
29.060420751571655,22
29.060420751571655,38
29.060420751571655,55
29.060420751571655,17
29.060420751571655,137
29.060420751571655,147
29.060420751571655,0
29.170875787734985,108
29.170875787734985,68
29.170875787734985,78
29.170875787734985,782
29.170875787734985,0
29.170875787734985,273
29.170875787734985,4
29.170875787734985,29
29.170875787734985,63
29.170875787734985,86
29.26593327522278,9
29.26593327522278,170
29.26593327522278,379
29.26593327522278,453
29.26593327522278,94
29.26593327522278,25
29.26593327522278,50
29.26593327522278,162
29.26593327522278,589
29.26593327522278,83
29.361299514770508,111
29.361299514770508,316
29.361299514770508,179
29.361299514770508,24
29.361299514770508,1
29.361299514770508,96
29.361299514770508,14
29.361299514770508,354
29.361299514770508,30
29.361299514770508,8
29.471696138381958,367
29.471696138381958,171
29.471696138381958,136
29.471696138381958,83
29.471696138381958,181
29.471696138381958,38
29.471696138381958,169
29.471696138381958,104
29.471696138381958,232
29.471696138381958,51
29.566977500915527,746
29.566977500915527,1
29.566977500915527,1
29.566977500915527,75
29.566977500915527,226
29.566977500915527,74
29.566977500915527,146
29.566977500915527,386
29.566977500915527,232
29.66208243370056,159
29.66208243370056,220
29.66208243370056,53
29.66208243370056,55
29.66208243370056,36
29.66208243370056,147
29.66208243370056,225
29.66208243370056,112
29.66208243370056,184
29.66208243370056,41
29.77329969406128,100
29.77329969406128,7
29.77329969406128,215
29.77329969406128,883
29.77329969406128,188
29.77329969406128,185
29.77329969406128,144
29.77329969406128,59
29.77329969406128,43
29.77329969406128,0
29.86912965774536,66
29.86912965774536,59
29.86912965774536,289
29.86912965774536,71
29.86912965774536,277
29.86912965774536,14
29.86912965774536,125
29.86912965774536,64
29.86912965774536,25
29.86912965774536,20
29.964664697647095,53
29.964664697647095,28
29.964664697647095,95
29.964664697647095,260
29.964664697647095,32
29.964664697647095,19
29.964664697647095,56
29.964664697647095,5
29.964664697647095,1
30.059224367141724,0
30.059224367141724,44
30.059224367141724,50
30.059224367141724,24
30.059224367141724,41
30.059224367141724,253
30.059224367141724,1
30.059224367141724,21
30.059224367141724,21
30.059224367141724,5
30.154502630233765,2
30.154502630233765,15
30.154502630233765,0
30.154502630233765,0
30.154502630233765,0
30.154502630233765,0
30.154502630233765,0
30.154502630233765,0
30.154502630233765,2
30.154502630233765,0
30.265039920806885,12
30.265039920806885,0
30.265039920806885,0
30.265039920806885,0
30.265039920806885,9
30.265039920806885,0
30.265039920806885,0
30.265039920806885,0
30.265039920806885,3
30.359659433364868,8
30.359659433364868,1
30.359659433364868,0
30.359659433364868,0
30.359659433364868,0
30.359659433364868,0
30.359659433364868,0
30.359659433364868,1
30.359659433364868,2
30.359659433364868,0
30.45454430580139,0
30.45454430580139,0
30.45454430580139,0
30.45454430580139,0
30.45454430580139,0
30.45454430580139,0
30.45454430580139,7
30.45454430580139,0
30.45454430580139,0
30.45454430580139,0
30.565722227096558,24
30.565722227096558,0
30.565722227096558,0
30.565722227096558,0
30.565722227096558,0
30.565722227096558,0
30.565722227096558,11
30.565722227096558,0
30.565722227096558,1
30.565722227096558,2
30.660770654678345,5
30.660770654678345,6
30.660770654678345,0
30.660770654678345,0
30.660770654678345,1
30.660770654678345,0
30.660770654678345,0
30.660770654678345,0
30.660770654678345,1
30.660770654678345,0
30.755937337875366,0
30.755937337875366,8
30.755937337875366,0
30.755937337875366,0
30.755937337875366,0
30.755937337875366,0
30.755937337875366,0
30.755937337875366,3
30.755937337875366,9
30.851175785064697,0
30.851175785064697,5
30.851175785064697,6
30.851175785064697,2
30.851175785064697,0
30.851175785064697,6
30.851175785064697,1
30.851175785064697,10
30.851175785064697,0
30.851175785064697,0
30.956851720809937,0
30.956851720809937,0
30.956851720809937,0
30.956851720809937,2
30.956851720809937,0
30.956851720809937,0
30.956851720809937,5
30.956851720809937,2
30.956851720809937,12
31.052058696746826,0
31.052058696746826,0
31.052058696746826,0
31.052058696746826,0
31.052058696746826,0
31.052058696746826,10
31.052058696746826,0
31.052058696746826,0
31.052058696746826,7
31.052058696746826,0
31.14736557006836,1
31.14736557006836,0
31.14736557006836,0
31.14736557006836,0
31.14736557006836,9
31.14736557006836,0
31.14736557006836,0
31.14736557006836,0
31.14736557006836,11
31.2311532497406,2
31.2311532497406,9
31.2311532497406,0
31.2311532497406,3
31.2311532497406,0
31.2311532497406,0
31.2311532497406,8
31.2311532497406,0
31.2311532497406,1
31.326120853424072,0
31.326120853424072,0
31.326120853424072,0
31.326120853424072,3
31.326120853424072,0
31.326120853424072,0
31.326120853424072,0
31.326120853424072,4
31.326120853424072,1
31.421377897262573,19
31.421377897262573,0
31.421377897262573,7
31.421377897262573,2
31.421377897262573,8
31.421377897262573,0
31.421377897262573,0
31.421377897262573,3
31.421377897262573,0
31.421377897262573,3
31.51611852645874,0
31.51611852645874,24
31.51611852645874,0
31.51611852645874,0
31.51611852645874,0
31.51611852645874,0
31.51611852645874,0
31.51611852645874,4
31.51611852645874,3
31.610813856124878,1
31.610813856124878,0
31.610813856124878,3
31.610813856124878,2
31.610813856124878,10
31.610813856124878,3
31.610813856124878,0
31.610813856124878,0
31.610813856124878,14
31.705432176589966,0
31.705432176589966,10
31.705432176589966,0
31.705432176589966,1
31.705432176589966,10
31.705432176589966,0
31.705432176589966,0
31.705432176589966,0
31.705432176589966,3
31.800454139709473,0
31.800454139709473,0
31.800454139709473,0
31.800454139709473,0
31.800454139709473,0
31.800454139709473,0
31.800454139709473,0
31.800454139709473,0
31.800454139709473,0
31.800454139709473,2
31.911450147628784,0
31.911450147628784,0
31.911450147628784,0
31.911450147628784,6
31.911450147628784,10
31.911450147628784,0
31.911450147628784,0
31.911450147628784,0
31.911450147628784,0
31.911450147628784,0
32.0062153339386,0
32.0062153339386,0
32.0062153339386,0
32.0062153339386,0
32.0062153339386,1
32.0062153339386,3
32.0062153339386,16
32.0062153339386,0
32.0062153339386,2
32.0062153339386,0
32.10129642486572,0
32.10129642486572,13
32.10129642486572,0
32.10129642486572,0
32.10129642486572,0
32.10129642486572,0
32.10129642486572,0
32.10129642486572,0
32.10129642486572,3
32.10129642486572,0
32.21218490600586,5
32.21218490600586,0
32.21218490600586,0
32.21218490600586,0
32.21218490600586,14
32.21218490600586,0
32.21218490600586,0
32.21218490600586,4
32.21218490600586,0
32.30686163902283,14
32.30686163902283,2
32.30686163902283,1
32.30686163902283,0
32.30686163902283,5
32.30686163902283,8
32.30686163902283,5
32.30686163902283,5
32.30686163902283,8
32.30686163902283,2
32.401546478271484,0
32.401546478271484,3
32.401546478271484,3
32.401546478271484,0
32.401546478271484,0
32.401546478271484,0
32.401546478271484,0
32.401546478271484,0
32.401546478271484,0
32.49706792831421,0
32.49706792831421,0
32.49706792831421,0
32.49706792831421,10
32.49706792831421,0
32.49706792831421,0
32.49706792831421,0
32.49706792831421,4
32.49706792831421,0
32.49706792831421,0
32.57659149169922,1
32.57659149169922,0
32.57659149169922,0
32.57659149169922,0
32.57659149169922,2
32.57659149169922,0
32.57659149169922,0
32.57659149169922,0
32.57659149169922,11
32.68828248977661,0
32.68828248977661,1
32.68828248977661,0
32.68828248977661,0
32.68828248977661,3
32.68828248977661,0
32.68828248977661,0
32.68828248977661,2
32.68828248977661,4
32.782424449920654,0
32.782424449920654,0
32.782424449920654,0
32.782424449920654,0
32.782424449920654,0
32.782424449920654,0
32.782424449920654,3
32.782424449920654,7
32.782424449920654,0
32.782424449920654,0
32.87757897377014,3
32.87757897377014,0
32.87757897377014,0
32.87757897377014,0
32.87757897377014,0
32.87757897377014,0
32.87757897377014,0
32.87757897377014,0
32.87757897377014,2
32.97241806983948,4
32.97241806983948,10
32.97241806983948,11
32.97241806983948,0
32.97241806983948,1
32.97241806983948,3
32.97241806983948,0
32.97241806983948,0
32.97241806983948,0
33.06727361679077,2
33.06727361679077,16
33.06727361679077,16
33.06727361679077,0
33.06727361679077,0
33.06727361679077,0
33.06727361679077,0
33.06727361679077,0
33.06727361679077,4
33.06727361679077,0
33.16230130195618,2
33.16230130195618,6
33.16230130195618,0
33.16230130195618,0
33.16230130195618,0
33.16230130195618,0
33.16230130195618,1
33.16230130195618,4
33.16230130195618,0
33.25707483291626,0
33.25707483291626,0
33.25707483291626,0
33.25707483291626,0
33.25707483291626,3
33.25707483291626,0
33.25707483291626,0
33.25707483291626,1
33.25707483291626,0
33.35237407684326,0
33.35237407684326,0
33.35237407684326,3
33.35237407684326,0
33.35237407684326,0
33.35237407684326,2
33.35237407684326,5
33.35237407684326,0
33.35237407684326,0
33.35237407684326,0
33.44885063171387,0
33.44885063171387,7
33.44885063171387,0
33.44885063171387,0
33.44885063171387,4
33.44885063171387,0
33.44885063171387,0
33.44885063171387,0
33.44885063171387,0
33.53686261177063,2
33.53686261177063,0
33.53686261177063,3
33.53686261177063,0
33.53686261177063,0
33.53686261177063,0
33.53686261177063,0
33.53686261177063,0
33.53686261177063,0
33.62212419509888,0
33.62212419509888,0
33.62212419509888,0
33.62212419509888,6
33.62212419509888,0
33.62212419509888,0
33.62212419509888,9
33.62212419509888,0
33.62212419509888,0
33.71729040145874,0
33.71729040145874,0
33.71729040145874,0
33.71729040145874,0
33.71729040145874,4
33.71729040145874,0
33.71729040145874,0
33.71729040145874,0
33.71729040145874,0
33.71729040145874,0
33.82311034202576,0
33.82311034202576,0
33.82311034202576,0
33.82311034202576,4
33.82311034202576,0
33.82658648490906,0
33.82658648490906,0
33.82658648490906,0
33.82658648490906,0
33.912476778030396,0
33.912476778030396,0
33.912476778030396,0
33.912476778030396,0
33.912476778030396,0
33.912476778030396,5
33.912476778030396,1
33.912476778030396,0
33.912476778030396,0
33.912476778030396,28
34.023147106170654,2
34.023147106170654,0
34.023147106170654,0
34.023147106170654,0
34.023147106170654,0
34.023147106170654,0
34.023147106170654,0
34.023147106170654,2
34.023147106170654,0
34.023147106170654,0
34.11829710006714,8
34.11829710006714,2
34.11829710006714,1
34.11829710006714,0
34.11829710006714,0
34.11829710006714,2
34.11829710006714,0
34.11829710006714,1
34.11829710006714,0
34.208197355270386,0
34.208197355270386,0
34.208197355270386,0
34.208197355270386,0
34.208197355270386,0
34.208197355270386,0
34.208197355270386,0
34.208197355270386,0
34.208197355270386,0
34.303727865219116,0
34.303727865219116,0
34.303727865219116,0
34.303727865219116,0
34.303727865219116,0
34.303727865219116,0
34.303727865219116,0
34.303727865219116,0
34.303727865219116,0
34.38768911361694,0
34.38768911361694,0
34.38768911361694,0
34.38768911361694,0
34.38768911361694,0
34.38768911361694,0
34.38768911361694,0
34.38768911361694,0
34.38768911361694,0
34.38768911361694,1
34.49322772026062,0
34.49322772026062,0
34.49322772026062,0
34.49322772026062,0
34.49322772026062,0
34.49322772026062,0
34.49322772026062,0
34.49322772026062,6
34.49322772026062,0
34.578179597854614,4
34.578179597854614,0
34.578179597854614,4
34.578179597854614,0
34.578179597854614,0
34.578179597854614,0
34.578179597854614,0
34.578179597854614,0
34.578179597854614,1
34.67296099662781,0
34.67296099662781,0
34.67296099662781,0
34.67296099662781,0
34.67296099662781,0
34.67296099662781,0
34.67296099662781,0
34.67296099662781,0
34.67296099662781,1
34.67296099662781,0
34.76801037788391,0
34.76801037788391,0
34.76801037788391,0
34.76801037788391,0
34.76801037788391,0
34.76801037788391,0
34.76801037788391,1
34.76801037788391,0
34.76801037788391,0
34.86322355270386,0
34.86322355270386,0
34.86322355270386,0
34.86322355270386,0
34.86322355270386,0
34.86322355270386,0
34.86322355270386,0
34.86322355270386,0
34.86322355270386,0
34.95790672302246,0
34.95790672302246,0
34.95790672302246,0
34.95790672302246,0
34.95790672302246,0
34.95790672302246,0
34.95790672302246,0
34.95790672302246,0
34.95790672302246,1
35.05272603034973,0
35.05272603034973,0
35.05272603034973,0
35.05272603034973,0
35.05272603034973,0
35.05272603034973,0
35.05272603034973,21
35.05272603034973,1
35.05272603034973,0
35.05272603034973,0
35.15847587585449,0
35.15847587585449,0
35.15847587585449,0
35.15847587585449,0
35.15847587585449,0
35.15847587585449,0
35.15847587585449,0
35.15847587585449,0
35.15847587585449,0
35.2433226108551,0
35.2433226108551,0
35.2433226108551,0
35.2433226108551,0
35.2433226108551,0
35.2433226108551,0
35.2433226108551,0
35.2433226108551,0
35.2433226108551,0
35.348206520080566,0
35.348206520080566,0
35.348206520080566,0
35.348206520080566,0
35.348206520080566,0
35.348206520080566,0
35.348206520080566,7
35.348206520080566,0
35.348206520080566,0
35.348206520080566,0
35.43518543243408,1
35.43518543243408,0
35.43518543243408,4
35.43518543243408,0
35.43518543243408,0
35.43518543243408,0
35.43518543243408,2
35.43518543243408,0
35.43518543243408,5
35.528088331222534,2
35.528088331222534,0
35.528088331222534,0
35.528088331222534,51
35.528088331222534,21
35.528088331222534,4
35.528088331222534,0
35.528088331222534,0
35.528088331222534,0
35.62360882759094,0
35.62360882759094,29
35.62360882759094,30
35.62360882759094,0
35.62360882759094,1
35.62360882759094,1
35.62360882759094,0
35.62360882759094,15
35.62360882759094,43
35.62360882759094,31
35.71881103515625,4
35.71881103515625,1
35.71881103515625,80
35.71881103515625,11
35.71881103515625,208
35.71881103515625,0
35.71881103515625,6
35.71881103515625,2
35.71881103515625,2
35.813971757888794,0
35.813971757888794,23
35.813971757888794,0
35.813971757888794,25
35.813971757888794,32
35.813971757888794,7
35.813971757888794,74
35.813971757888794,0
35.813971757888794,30
35.90933704376221,45
35.90933704376221,0
35.90933704376221,0
35.90933704376221,7
35.90933704376221,8
35.90933704376221,95
35.90933704376221,0
35.90933704376221,1
35.90933704376221,0
36.00443720817566,22
36.00443720817566,42
36.00443720817566,1
36.00443720817566,100
36.00443720817566,19
36.00443720817566,0
36.00443720817566,45
36.00443720817566,0
36.00443720817566,0
36.00443720817566,0
36.09922409057617,9
36.09922409057617,146
36.09922409057617,24
36.09922409057617,0
36.09922409057617,0
36.09922409057617,98
36.09922409057617,15
36.09922409057617,5
36.09922409057617,7
36.19400715827942,9
36.19400715827942,6
36.19400715827942,0
36.19400715827942,7
36.19400715827942,23
36.19400715827942,2
36.19400715827942,5
36.19400715827942,4
36.19400715827942,23
36.273932456970215,0
36.273932456970215,0
36.273932456970215,0
36.273932456970215,9
36.273932456970215,0
36.273932456970215,2
36.273932456970215,0
36.273932456970215,0
36.273932456970215,21
36.37741160392761,55
36.37741160392761,4
36.37918186187744,32
36.37918186187744,133
36.37918186187744,5
36.37918186187744,0
36.37918186187744,19
36.37918186187744,1
36.37918186187744,27
36.46501135826111,19
36.46501135826111,3
36.46501135826111,54
36.46501135826111,34
36.46501135826111,0
36.46501135826111,100
36.46501135826111,289
36.46501135826111,168
36.46501135826111,13
36.57077503204346,15
36.57077503204346,0
36.57077503204346,148
36.57077503204346,35
36.57077503204346,123
36.57077503204346,21
36.57077503204346,28
36.57077503204346,41
36.57077503204346,142
36.57077503204346,465
36.671565771102905,77
36.671565771102905,21
36.671565771102905,77
36.671565771102905,4
36.671565771102905,129
36.671565771102905,0
36.671565771102905,45
36.671565771102905,304
36.671565771102905,63
36.671565771102905,93
36.766767501831055,41
36.766767501831055,3
36.766767501831055,11
36.766767501831055,57
36.766767501831055,12
36.766767501831055,23
36.766767501831055,219
36.766767501831055,331
36.766767501831055,372
36.766767501831055,396
36.878148317337036,102
36.878148317337036,51
36.878148317337036,90
36.878148317337036,207
36.878148317337036,80
36.878148317337036,96
36.878148317337036,17
36.878148317337036,244
36.878148317337036,117
36.878148317337036,49
36.973265647888184,296
36.973265647888184,274
36.973265647888184,64
36.973265647888184,226
36.973265647888184,30
36.973265647888184,17
36.973265647888184,44
36.973265647888184,24
36.973265647888184,289
36.973265647888184,251
37.068628787994385,66
37.068628787994385,313
37.068628787994385,11
37.068628787994385,79
37.068628787994385,4
37.068628787994385,69
37.068628787994385,448
37.068628787994385,129
37.068628787994385,50
37.068628787994385,303
37.17978477478027,240
37.17978477478027,206
37.17978477478027,230
37.17978477478027,361
37.17978477478027,33
37.17978477478027,241
37.17978477478027,11
37.17978477478027,211
37.17978477478027,163
37.27523612976074,737
37.27523612976074,194
37.27523612976074,107
37.27523612976074,5
37.27523612976074,57
37.27523612976074,99
37.27523612976074,248
37.27523612976074,71
37.27523612976074,69
37.27523612976074,91
37.37049174308777,184
37.37049174308777,149
37.37049174308777,83
37.37049174308777,0
37.37049174308777,616
37.37049174308777,62
37.37049174308777,328
37.37049174308777,42
37.37049174308777,206
37.37049174308777,120
37.48224234580994,58
37.48224234580994,75
37.48224234580994,171
37.48224234580994,68
37.48224234580994,131
37.48224234580994,245
37.48224234580994,279
37.48224234580994,120
37.48224234580994,1
37.48224234580994,195
37.57699537277222,54
37.57699537277222,215
37.57699537277222,24
37.57699537277222,207
37.57699537277222,75
37.57699537277222,29
37.57699537277222,61
37.57699537277222,147
37.57699537277222,307
37.65658116340637,61
37.65658116340637,366
37.65658116340637,154
37.65658116340637,290
37.65658116340637,789
37.65658116340637,47
37.65658116340637,78
37.67251014709473,338
37.67251014709473,59
37.751792907714844,0
37.751792907714844,276
37.751792907714844,163
37.751792907714844,740
37.751792907714844,30
37.751792907714844,44
37.751792907714844,158
37.751792907714844,68
37.751792907714844,301
37.856796741485596,28
37.856796741485596,128
37.856796741485596,288
37.856796741485596,115
37.856796741485596,69
37.856796741485596,132
37.856796741485596,161
37.856796741485596,15
37.856796741485596,473
37.856796741485596,20
37.95298433303833,142
37.95298433303833,916
37.95298433303833,69
37.95298433303833,311
37.95298433303833,0
37.95298433303833,106
37.95298433303833,233
37.95298433303833,77
37.95298433303833,393
38.05406451225281,87
38.05406451225281,175
38.05406451225281,162
38.05406451225281,182
38.05406451225281,291
38.05406451225281,11
38.05406451225281,231
38.05406451225281,136
38.05406451225281,88
38.05406451225281,44
38.15190625190735,114
38.15190625190735,217
38.15190625190735,26
38.15190625190735,109
38.15190625190735,39
38.15190625190735,389
38.15190625190735,65
38.15190625190735,198
38.15190625190735,33
38.15190625190735,31
38.25495433807373,67
38.25495433807373,125
38.25495433807373,337
38.25495433807373,193
38.25495433807373,366
38.25495433807373,159
38.25495433807373,173
38.25495433807373,24
38.25495433807373,138
38.35484862327576,315
38.35484862327576,31
38.35484862327576,413
38.35484862327576,103
38.35484862327576,162
38.35484862327576,238
38.35484862327576,78
38.35484862327576,6
38.35484862327576,18
38.35484862327576,31
38.449735164642334,98
38.449735164642334,654
38.449735164642334,62
38.449735164642334,289
38.449735164642334,392
38.449735164642334,154
38.449735164642334,0
38.449735164642334,35
38.449735164642334,40
38.449735164642334,240
38.56048774719238,243
38.56048774719238,54
38.56048774719238,356
38.56048774719238,236
38.56048774719238,44
38.56048774719238,10
38.56048774719238,6
38.56048774719238,91
38.56048774719238,892
38.56048774719238,5
38.65570068359375,288
38.65570068359375,224
38.65570068359375,36
38.65570068359375,27
38.65570068359375,4
38.65570068359375,407
38.65570068359375,192
38.65570068359375,114
38.65570068359375,269
38.65570068359375,279
38.75113081932068,8
38.75113081932068,4
38.75113081932068,36
38.75113081932068,215
38.75113081932068,8
38.75113081932068,31
38.75113081932068,8
38.75113081932068,407
38.75113081932068,306
38.75113081932068,50
38.86112976074219,103
38.86112976074219,64
38.86112976074219,0
38.86112976074219,38
38.86112976074219,25
38.86112976074219,91
38.86112976074219,315
38.86112976074219,72
38.86112976074219,5
38.86112976074219,29
38.95608973503113,135
38.95608973503113,2
38.95608973503113,10
38.95608973503113,223
38.95608973503113,51
38.95608973503113,111
38.95608973503113,141
38.95608973503113,458
38.95608973503113,0
39.0511109828949,0
39.0511109828949,37
39.0511109828949,23
39.0511109828949,346
39.0511109828949,145
39.0511109828949,12
39.0511109828949,198
39.0511109828949,35
39.0511109828949,134
39.0511109828949,33
39.162538290023804,181
39.162538290023804,38
39.162538290023804,226
39.162538290023804,53
39.162538290023804,42
39.162538290023804,291
39.162538290023804,30
39.162538290023804,0
39.162538290023804,105
39.162538290023804,9
39.257474422454834,219
39.257474422454834,353
39.257474422454834,278
39.257474422454834,269
39.257474422454834,48
39.257474422454834,23
39.257474422454834,4
39.257474422454834,0
39.257474422454834,163
39.257474422454834,246
39.368454933166504,193
39.368454933166504,252
39.368454933166504,41
39.368454933166504,57
39.368454933166504,4
39.368454933166504,79
39.368454933166504,0
39.368454933166504,174
39.368454933166504,78
39.368454933166504,181
39.368454933166504,71
39.46350455284119,19
39.46350455284119,68
39.46350455284119,4
39.46350455284119,21
39.46350455284119,38
39.46350455284119,0
39.46350455284119,0
39.46350455284119,7
39.46350455284119,15
39.46350455284119,11
39.574368953704834,0
39.574368953704834,0
39.574368953704834,15
39.574368953704834,0
39.574368953704834,5
39.574368953704834,10
39.574368953704834,35
39.574368953704834,3
39.574368953704834,6
39.574368953704834,0
39.66954278945923,0
39.66954278945923,71
39.66954278945923,34
39.66954278945923,0
39.66954278945923,22
39.66954278945923,10
39.66954278945923,0
39.66954278945923,0
39.66954278945923,0
39.66954278945923,0
39.780765771865845,2
39.780765771865845,6
39.780765771865845,6
39.780765771865845,2
39.780765771865845,0
39.780765771865845,0
39.780765771865845,0
39.780765771865845,0
39.780765771865845,0
39.780765771865845,0
39.875871658325195,11
39.875871658325195,0
39.875871658325195,7
39.875871658325195,1
39.875871658325195,0
39.875871658325195,1
39.875871658325195,3
39.875871658325195,7
39.875871658325195,5
39.875871658325195,40
39.98748779296875,1
39.98748779296875,63
39.98748779296875,0
39.98748779296875,0
39.98748779296875,0
39.98748779296875,9
39.98748779296875,12
39.98748779296875,0
39.98748779296875,0
39.98748779296875,0
40.08202576637268,9
40.08202576637268,0
40.08202576637268,0
40.08202576637268,7
40.08202576637268,5
40.08202576637268,0
40.08202576637268,0
40.08202576637268,11
40.08202576637268,0
40.08202576637268,0
40.193376779556274,2
40.193376779556274,4
40.193376779556274,0
40.193376779556274,2
40.193376779556274,0
40.193376779556274,13
40.193376779556274,4
40.193376779556274,0
40.193376779556274,2
40.193376779556274,1
40.28892707824707,0
40.28892707824707,0
40.28892707824707,0
40.28892707824707,10
40.28892707824707,23
40.28892707824707,7
40.28892707824707,3
40.28892707824707,0
40.28892707824707,0
40.28892707824707,1
40.39880871772766,23
40.39880871772766,1
40.39880871772766,1
40.39880871772766,14
40.39880871772766,4
40.39880871772766,2
40.39880871772766,12
40.39880871772766,0
40.39880871772766,0
40.39880871772766,15
40.49445295333862,0
40.49445295333862,9
40.49445295333862,6
40.49445295333862,0
40.49445295333862,19
40.49445295333862,0
40.49445295333862,0
40.49445295333862,0
40.49445295333862,10
40.49445295333862,0
40.60466241836548,18
40.60466241836548,0
40.60466241836548,7
40.60466241836548,0
40.60466241836548,9
40.60466241836548,0
40.60466241836548,0
40.60466241836548,1
40.60466241836548,0
40.60466241836548,0
40.60466241836548,0
40.70005798339844,0
40.70005798339844,0
40.70005798339844,3
40.70005798339844,0
40.70005798339844,6
40.70005798339844,2
40.70005798339844,0
40.70005798339844,0
40.70005798339844,0
40.70005798339844,0
40.79494762420654,0
40.79494762420654,0
40.79494762420654,3
40.79494762420654,0
40.79494762420654,0
40.79494762420654,0
40.79494762420654,0
40.79494762420654,8
40.79494762420654,0
40.79494762420654,0
40.905508518218994,0
40.905508518218994,8
40.905508518218994,9
40.905508518218994,0
40.905508518218994,0
40.905508518218994,0
40.905508518218994,0
40.905508518218994,0
40.905508518218994,0
40.905508518218994,0
41.0008499622345,0
41.0008499622345,13
41.0008499622345,0
41.0008499622345,0
41.0008499622345,0
41.0008499622345,0
41.0008499622345,0
41.0008499622345,0
41.0008499622345,0
41.0008499622345,0
41.11174392700195,0
41.11174392700195,1
41.11174392700195,0
41.11174392700195,0
41.11174392700195,2
41.11174392700195,0
41.11174392700195,0
41.11174392700195,0
41.11174392700195,0
41.11174392700195,0
41.20711159706116,0
41.20711159706116,2
41.20711159706116,0
41.20711159706116,16
41.20711159706116,0
41.20711159706116,5
41.20711159706116,0
41.20711159706116,0
41.20711159706116,1
41.302427530288696,2
41.302427530288696,24
41.302427530288696,27
41.302427530288696,15
41.302427530288696,3
41.302427530288696,1
41.302427530288696,0
41.302427530288696,0
41.302427530288696,4
41.302427530288696,15
41.39785408973694,0
41.39785408973694,0
41.39785408973694,0
41.39785408973694,5
41.39785408973694,2
41.39785408973694,87
41.39785408973694,38
41.39785408973694,0
41.39785408973694,0
41.39785408973694,0
41.50887727737427,0
41.50887727737427,0
41.50887727737427,1
41.50887727737427,0
41.50887727737427,0
41.50887727737427,0
41.50887727737427,0
41.50887727737427,0
41.50887727737427,11
41.50887727737427,2
41.60390520095825,0
41.60390520095825,4
41.60390520095825,10
41.60390520095825,0
41.60390520095825,27
41.60390520095825,0
41.60390520095825,0
41.60390520095825,52
41.60390520095825,16
41.60390520095825,6
41.6987829208374,0
41.6987829208374,2
41.6987829208374,5
41.6987829208374,0
41.6987829208374,20
41.6987829208374,9
41.6987829208374,0
41.6987829208374,0
41.6987829208374,0
41.80996632575989,3
41.80996632575989,0
41.80996632575989,2
41.80996632575989,0
41.80996632575989,11
41.80996632575989,4
41.80996632575989,0
41.80996632575989,0
41.80996632575989,0
41.80996632575989,0
41.90514612197876,0
41.90514612197876,5
41.90514612197876,12
41.90514612197876,0
41.90514612197876,0
41.90514612197876,0
41.90514612197876,0
41.90514612197876,0
41.90514612197876,0
41.90514612197876,0
42.00029635429382,0
42.00029635429382,0
42.00029635429382,0
42.00029635429382,0
42.00029635429382,1
42.00029635429382,0
42.00029635429382,5
42.00029635429382,0
42.00029635429382,0
42.00029635429382,0
42.111210107803345,0
42.111210107803345,0
42.111210107803345,2
42.111210107803345,0
42.111210107803345,19
42.111210107803345,2
42.111210107803345,6
42.111210107803345,1
42.111210107803345,4
42.111210107803345,0
42.20656442642212,4
42.20656442642212,0
42.20656442642212,10
42.20656442642212,6
42.20656442642212,9
42.20656442642212,0
42.20656442642212,11
42.20656442642212,5
42.20656442642212,10
42.20656442642212,3
42.30153203010559,3
42.30153203010559,0
42.30153203010559,4
42.30153203010559,4
42.30153203010559,0
42.30153203010559,2
42.30153203010559,2
42.30153203010559,0
42.30153203010559,5
42.30153203010559,0
42.412617206573486,0
42.412617206573486,0
42.412617206573486,2
42.412617206573486,0
42.412617206573486,0
42.412617206573486,1
42.412617206573486,2
42.412617206573486,0
42.412617206573486,11
42.507795095443726,0
42.507795095443726,0
42.507795095443726,1
42.507795095443726,0
42.507795095443726,0
42.507795095443726,0
42.507795095443726,0
42.507795095443726,0
42.507795095443726,0
42.507795095443726,0
42.604512453079224,0
42.604512453079224,0
42.604512453079224,0
42.604512453079224,1
42.604512453079224,0
42.604512453079224,0
42.604512453079224,0
42.604512453079224,0
42.604512453079224,1
42.604512453079224,6
42.69812560081482,0
42.69812560081482,0
42.69812560081482,14
42.69812560081482,0
42.69812560081482,7
42.69812560081482,0
42.69812560081482,2
42.69812560081482,0
42.69812560081482,6
42.794238567352295,4
42.794238567352295,8
42.794238567352295,0
42.794238567352295,15
42.794238567352295,0
42.794238567352295,11
42.794238567352295,5
42.794238567352295,14
42.794238567352295,1
42.88960862159729,12
42.88960862159729,0
42.88960862159729,1
42.88960862159729,0
42.88960862159729,5
42.88960862159729,0
42.88960862159729,4
42.88960862159729,0
42.88960862159729,0
42.98460078239441,0
42.98460078239441,1
42.98460078239441,0
42.98460078239441,0
42.98460078239441,0
42.98460078239441,0
42.98460078239441,0
42.98460078239441,0
42.98460078239441,0
42.98460078239441,0
43.078815937042236,0
43.078815937042236,0
43.078815937042236,0
43.078815937042236,0
43.078815937042236,0
43.078815937042236,0
43.078815937042236,0
43.078815937042236,0
43.078815937042236,0
43.17388439178467,0
43.17388439178467,0
43.17388439178467,0
43.17388439178467,0
43.17388439178467,0
43.17388439178467,0
43.17388439178467,0
43.17388439178467,1
43.17388439178467,0
43.17388439178467,3
43.26908493041992,0
43.26908493041992,1
43.26908493041992,1
43.26908493041992,7
43.26908493041992,4
43.26908493041992,6
43.26908493041992,0
43.26908493041992,0
43.26908493041992,0
43.26908493041992,4
43.36497187614441,0
43.36497187614441,9
43.36497187614441,1
43.36497187614441,9
43.36497187614441,2
43.36497187614441,7
43.36497187614441,3
43.36497187614441,8
43.36497187614441,0
43.4763023853302,8
43.4763023853302,0
43.4763023853302,8
43.4763023853302,2
43.4763023853302,0
43.4763023853302,0
43.4763023853302,1
43.4763023853302,0
43.4763023853302,0
43.4763023853302,0
43.57131838798523,0
43.57131838798523,0
43.57131838798523,0
43.57131838798523,0
43.57131838798523,0
43.57131838798523,0
43.57131838798523,0
43.57131838798523,3
43.57131838798523,0
43.57131838798523,0
43.66680836677551,0
43.66680836677551,0
43.66680836677551,0
43.66680836677551,0
43.66680836677551,0
43.66680836677551,0
43.66680836677551,0
43.66680836677551,0
43.66680836677551,0
43.761993169784546,0
43.761993169784546,0
43.761993169784546,0
43.761993169784546,0
43.761993169784546,0
43.761993169784546,0
43.761993169784546,1
43.761993169784546,0
43.761993169784546,0
43.761993169784546,0
43.8606390953064,2
43.8606390953064,0
43.8606390953064,10
43.8606390953064,3
43.8606390953064,3
43.8606390953064,0
43.8606390953064,4
43.8606390953064,9
43.8606390953064,1
43.95253801345825,0
43.95253801345825,6
43.95253801345825,8
43.95253801345825,9
43.95253801345825,3
43.95253801345825,11
43.95253801345825,0
43.95253801345825,7
43.95253801345825,0
43.95253801345825,6
44.05005979537964,0
44.05005979537964,0
44.05005979537964,0
44.05005979537964,2
44.05005979537964,0
44.05005979537964,0
44.05005979537964,0
44.05005979537964,1
44.05005979537964,0
44.15512037277222,1
44.15512037277222,0
44.15512037277222,0
44.15512037277222,0
44.15512037277222,0
44.15512037277222,0
44.15512037277222,0
44.15512037277222,0
44.15512037277222,0
44.15512037277222,0
44.24928164482117,0
44.24928164482117,0
44.24928164482117,0
44.24928164482117,0
44.24928164482117,0
44.24928164482117,0
44.24928164482117,0
44.24928164482117,0
44.24928164482117,0
44.349623680114746,0
44.349623680114746,0
44.349623680114746,0
44.349623680114746,0
44.349623680114746,0
44.349623680114746,0
44.349623680114746,0
44.349623680114746,0
44.349623680114746,3
44.349623680114746,0
44.44461154937744,0
44.44461154937744,2
44.44461154937744,0
44.44461154937744,2
44.44461154937744,15
44.44461154937744,42
44.44461154937744,70
44.44461154937744,0
44.44461154937744,9
44.541900873184204,0
44.541900873184204,9
44.541900873184204,0
44.541900873184204,0
44.541900873184204,0
44.541900873184204,17
44.541900873184204,4
44.541900873184204,16
44.541900873184204,0
44.541900873184204,0
44.63483929634094,0
44.63483929634094,0
44.63483929634094,0
44.63483929634094,0
44.63483929634094,1
44.63483929634094,12
44.63483929634094,43
44.63483929634094,32
44.63483929634094,14
44.736355781555176,1
44.736355781555176,0
44.736355781555176,9
44.736355781555176,0
44.736355781555176,4
44.736355781555176,0
44.736355781555176,0
44.736355781555176,0
44.736355781555176,0
44.736355781555176,24
44.82623243331909,5
44.82623243331909,11
44.82623243331909,0
44.82623243331909,0
44.82623243331909,0
44.82623243331909,12
44.82623243331909,0
44.82623243331909,11
44.82623243331909,7
44.92124676704407,0
44.92124676704407,0
44.92124676704407,0
44.92124676704407,0
44.92124676704407,8
44.92124676704407,0
44.92124676704407,7
44.92124676704407,0
44.92124676704407,7
44.92124676704407,0
45.01635026931763,8
45.01635026931763,14
45.01635026931763,10
45.01635026931763,16
45.01635026931763,9
45.01635026931763,0
45.01635026931763,4
45.01635026931763,1
45.01635026931763,6
45.01635026931763,17
45.12709426879883,12
45.12709426879883,5
45.12709426879883,3
45.12709426879883,4
45.12709426879883,7
45.12709426879883,0
45.12709426879883,4
45.12709426879883,0
45.12709426879883,11
45.2221884727478,6
45.2221884727478,5
45.2221884727478,2
45.2221884727478,26
45.2221884727478,4
45.2221884727478,0
45.2221884727478,0
45.2221884727478,5
45.2221884727478,0
45.2221884727478,0
45.3172402381897,0
45.3172402381897,5
45.3172402381897,0
45.3172402381897,1
45.3172402381897,0
45.3172402381897,3
45.3172402381897,1
45.3172402381897,6
45.3172402381897,4
45.3172402381897,8
45.41276836395264,3
45.41276836395264,0
45.41276836395264,5
45.41276836395264,0
45.41276836395264,4
45.41276836395264,0
45.41276836395264,7
45.41276836395264,0
45.41276836395264,0
45.41276836395264,0
45.508424520492554,0
45.508424520492554,0
45.508424520492554,12
45.508424520492554,0
45.508424520492554,10
45.508424520492554,0
45.508424520492554,11
45.508424520492554,2
45.508424520492554,15
45.603662967681885,3
45.603662967681885,8
45.603662967681885,0
45.603662967681885,2
45.603662967681885,0
45.603662967681885,4
45.603662967681885,3
45.603662967681885,14
45.603662967681885,6
45.698965549468994,7
45.698965549468994,4
45.698965549468994,17
45.698965549468994,3
45.698965549468994,7
45.698965549468994,2
45.698965549468994,4
45.698965549468994,0
45.698965549468994,3
45.79523038864136,0
45.79523038864136,0
45.79523038864136,0
45.79523038864136,0
45.79523038864136,0
45.79523038864136,1
45.79523038864136,0
45.79523038864136,0
45.79523038864136,0
45.89016246795654,0
45.89016246795654,0
45.89016246795654,0
45.89016246795654,0
45.89016246795654,0
45.89016246795654,0
45.89016246795654,0
45.89016246795654,0
45.89016246795654,0
45.96857500076294,0
45.96857500076294,0
45.96857500076294,0
45.96857500076294,0
45.96857500076294,0
45.96857500076294,0
45.96857500076294,1
45.96857500076294,0
45.96857500076294,0
46.063884019851685,0
46.063884019851685,19
46.063884019851685,28
46.063884019851685,2
46.063884019851685,0
46.063884019851685,4
46.063884019851685,0
46.063884019851685,6
46.063884019851685,0
46.15899896621704,11
46.15899896621704,1
46.15899896621704,4
46.15899896621704,0
46.15899896621704,25
46.15899896621704,1
46.15899896621704,19
46.15899896621704,0
46.15899896621704,5
46.15899896621704,4
46.25435495376587,12
46.25435495376587,0
46.25435495376587,20
46.25435495376587,0
46.25435495376587,44
46.25435495376587,0
46.25435495376587,7
46.25435495376587,0
46.25435495376587,6
46.350067138671875,2
46.350067138671875,4
46.350067138671875,0
46.350067138671875,1
46.350067138671875,7
46.350067138671875,0
46.350067138671875,0
46.350067138671875,0
46.44629502296448,0
46.44629502296448,0
46.44629502296448,0
46.44629502296448,0
46.44629502296448,0
46.44629502296448,1
46.44629502296448,0
46.44629502296448,3
46.44629502296448,2
46.44629502296448,3
46.54204797744751,0
46.54204797744751,0
46.54204797744751,0
46.54204797744751,0
46.54204797744751,0
46.54204797744751,7
46.54204797744751,0
46.54204797744751,0
46.54204797744751,0
46.54204797744751,2
46.647000789642334,24
46.647000789642334,8
46.647000789642334,0
46.647000789642334,0
46.647000789642334,0
46.647000789642334,4
46.647000789642334,1
46.647000789642334,0
46.647000789642334,4
46.647000789642334,1
46.74682354927063,5
46.74682354927063,11
46.74682354927063,17
46.74682354927063,11
46.74682354927063,5
46.74682354927063,43
46.74682354927063,164
46.74682354927063,6
46.74682354927063,139
46.74682354927063,60
46.842923641204834,31
46.842923641204834,0
46.842923641204834,53
46.842923641204834,9
46.842923641204834,156
46.842923641204834,283
46.842923641204834,0
46.842923641204834,91
46.842923641204834,138
46.93837022781372,95
46.93837022781372,62
46.93837022781372,36
46.93837022781372,186
46.93837022781372,115
46.93837022781372,30
46.93837022781372,92
46.93837022781372,66
46.93837022781372,3
47.03381943702698,275
47.03381943702698,13
47.03381943702698,349
47.03381943702698,38
47.03381943702698,33
47.03381943702698,65
47.03381943702698,31
47.03381943702698,159
47.03381943702698,38
47.12865090370178,140
47.12865090370178,226
47.12865090370178,394
47.12865090370178,289
47.12865090370178,514
47.12865090370178,585
47.12865090370178,6
47.12865090370178,135
47.12865090370178,42
47.12865090370178,254
47.22352051734924,450
47.22352051734924,243
47.22352051734924,198
47.22352051734924,189
47.22352051734924,42
47.22352051734924,93
47.22352051734924,224
47.22352051734924,78
47.22780418395996,339
47.31907391548157,21
47.31907391548157,568
47.31907391548157,28
47.31907391548157,95
47.31907391548157,98
47.31907391548157,174
47.31907391548157,8
47.31907391548157,133
47.31907391548157,0
47.31907391548157,73
47.4146203994751,445
47.4146203994751,245
47.4146203994751,592
47.4146203994751,367
47.4146203994751,13
47.4146203994751,186
47.4146203994751,30
47.4146203994751,380
47.4146203994751,17
47.50996446609497,225
47.50996446609497,438
47.50996446609497,5
47.50996446609497,278
47.50996446609497,69
47.50996446609497,170
47.50996446609497,372
47.50996446609497,108
47.50996446609497,229
47.50996446609497,294
47.62186813354492,53
47.62186813354492,403
47.62186813354492,29
47.62186813354492,867
47.62186813354492,42
47.62186813354492,2
47.62186813354492,12
47.62186813354492,417
47.62186813354492,308
47.62186813354492,111
47.717026233673096,568
47.717026233673096,146
47.717026233673096,28
47.717026233673096,232
47.717026233673096,153
47.717026233673096,175
47.717026233673096,8
47.717026233673096,89
47.717026233673096,312
47.717026233673096,235
47.81231689453125,134
47.81231689453125,139
47.81231689453125,41
47.81231689453125,182
47.81231689453125,291
47.81231689453125,377
47.81231689453125,482
47.81231689453125,229
47.81231689453125,3
47.90711283683777,78
47.90711283683777,399
47.90711283683777,78
47.90711283683777,429
47.90711283683777,544
47.90711283683777,56
47.9228732585907,91
47.9228732585907,1023
47.9228732585907,0
47.9228732585907,104
48.01759886741638,50
48.01759886741638,144
48.01759886741638,640
48.01759886741638,149
48.01759886741638,8
48.01759886741638,463
48.01759886741638,5
48.01759886741638,145
48.01759886741638,35
48.01759886741638,342
48.112582206726074,173
48.112582206726074,207
48.112582206726074,43
48.112582206726074,219
48.112582206726074,614
48.112582206726074,127
48.112582206726074,699
48.112582206726074,40
48.112582206726074,432
48.208163261413574,390
48.208163261413574,225
48.208163261413574,124
48.208163261413574,354
48.208163261413574,344
48.208163261413574,24
48.208163261413574,291
48.208163261413574,13
48.208163261413574,12
48.208163261413574,13
48.30364918708801,775
48.30364918708801,36
48.30364918708801,370
48.30364918708801,14
48.30364918708801,168
48.30364918708801,102
48.30364918708801,859
48.30364918708801,77
48.30364918708801,86
48.3988995552063,51
48.3988995552063,659
48.3988995552063,0
48.3988995552063,25
48.3988995552063,38
48.3988995552063,12
48.3988995552063,434
48.3988995552063,342
48.3988995552063,90
48.3988995552063,0
48.49461269378662,43
48.49461269378662,29
48.49461269378662,196
48.49461269378662,244
48.49461269378662,83
48.49461269378662,789
48.49461269378662,61
48.49461269378662,65
48.49461269378662,122
48.58900761604309,321
48.58900761604309,79
48.58900761604309,175
48.58900761604309,0
48.58900761604309,0
48.58900761604309,15
48.58900761604309,64
48.58900761604309,143
48.58900761604309,24
48.68468236923218,731
48.68468236923218,20
48.68468236923218,12
48.68468236923218,36
48.68468236923218,166
48.68468236923218,186
48.68468236923218,238
48.68468236923218,113
48.68468236923218,107
48.77949357032776,484
48.77949357032776,78
48.77949357032776,20
48.77949357032776,12
48.77949357032776,9
48.77949357032776,50
48.77949357032776,311
48.77949357032776,488
48.77949357032776,45
48.77949357032776,78
48.87506127357483,77
48.87506127357483,378
48.87506127357483,137
48.87506127357483,34
48.87506127357483,41
48.87506127357483,238
48.87506127357483,100
48.87506127357483,84
48.87506127357483,90
48.987388134002686,53
48.987388134002686,15
48.987388134002686,42
48.987388134002686,14
48.987388134002686,4
48.987388134002686,380
48.987388134002686,25
48.987388134002686,137
48.987388134002686,171
48.987388134002686,52
49.083539724349976,63
49.083539724349976,62
49.083539724349976,42
49.083539724349976,382
49.083539724349976,2
49.083539724349976,103
49.083539724349976,47
49.083539724349976,58
49.083539724349976,27
49.083539724349976,35
49.193283796310425,27
49.193283796310425,379
49.193283796310425,692
49.193283796310425,157
49.193283796310425,38
49.193283796310425,205
49.193283796310425,173
49.193283796310425,392
49.193283796310425,434
49.193283796310425,131
49.290167570114136,0
49.290167570114136,47
49.290167570114136,28
49.290167570114136,19
49.290167570114136,64
49.290167570114136,739
49.290167570114136,120
49.290167570114136,174
49.290167570114136,145
49.290167570114136,184
49.39457631111145,53
49.39457631111145,48
49.39457631111145,328
49.39457631111145,26
49.39457631111145,265
49.39457631111145,12
49.39457631111145,29
49.39457631111145,311
49.39457631111145,99
49.39457631111145,63
49.495800733566284,71
49.495800733566284,47
49.495800733566284,104
49.495800733566284,114
49.495800733566284,159
49.495800733566284,11
49.495800733566284,96
49.495800733566284,417
49.495800733566284,166
49.495800733566284,51
49.5910758972168,31
49.5910758972168,92
49.5910758972168,148
49.5910758972168,169
49.5910758972168,44
49.5910758972168,188
49.5910758972168,21
49.5910758972168,47
49.5910758972168,0
49.5910758972168,129
49.701592206954956,160
49.701592206954956,188
49.701592206954956,38
49.701592206954956,0
49.701592206954956,19
49.701592206954956,434
49.701592206954956,0
49.701592206954956,170
49.701592206954956,26
49.701592206954956,846
49.79797911643982,48
49.79797911643982,253
49.79797911643982,47
49.79797911643982,235
49.79797911643982,128
49.79797911643982,9
49.79797911643982,1
49.79797911643982,6
49.79797911643982,65
49.79797911643982,18
49.903191566467285,134
49.903191566467285,22
49.903191566467285,39
49.903191566467285,58
49.903191566467285,240
49.903191566467285,17
49.903191566467285,98
49.903191566467285,158
49.903191566467285,74
49.903191566467285,287
50.00612664222717,39
50.00612664222717,13
50.00612664222717,69
50.00612664222717,0
50.00612664222717,23
50.00612664222717,37
50.00612664222717,77
50.00612664222717,16
50.00612664222717,41
50.00612664222717,0
50.09882855415344,17
50.09882855415344,0
50.09882855415344,19
50.09882855415344,22
50.09882855415344,3
50.09882855415344,20
50.09882855415344,45
50.09882855415344,11
50.09882855415344,0
50.09882855415344,7
50.19409680366516,0
50.19409680366516,0
50.19409680366516,0
50.19409680366516,0
50.19409680366516,3
50.19409680366516,2
50.19409680366516,31
50.19409680366516,0
50.19409680366516,36
50.30516576766968,10
50.30516576766968,1
50.30516576766968,0
50.30516576766968,5
50.30516576766968,10
50.30516576766968,14
50.30516576766968,11
50.30516576766968,5
50.30516576766968,0
50.30516576766968,14
50.30516576766968,0
50.400840044021606,40
50.400840044021606,0
50.400840044021606,5
50.400840044021606,0
50.400840044021606,0
50.400840044021606,5
50.400840044021606,17
50.400840044021606,1
50.400840044021606,0
50.49696707725525,0
50.49696707725525,9
50.49696707725525,0
50.49696707725525,1
50.49696707725525,2
50.49696707725525,7
50.49696707725525,0
50.49696707725525,2
50.49696707725525,8
50.49696707725525,3
50.60281014442444,0
50.60281014442444,0
50.60281014442444,11
50.60281014442444,23
50.60281014442444,0
50.60281014442444,0
50.60281014442444,0
50.60281014442444,0
50.60281014442444,0
50.60281014442444,102
50.70316481590271,0
50.70316481590271,0
50.70316481590271,5
50.70316481590271,7
50.70316481590271,3
50.70316481590271,0
50.70316481590271,13
50.70316481590271,16
50.70316481590271,0
50.79866409301758,6
50.79866409301758,10
50.79866409301758,0
50.79866409301758,15
50.79866409301758,10
50.79866409301758,12
50.79866409301758,22
50.79866409301758,13
50.79866409301758,0
50.79866409301758,11
50.89347982406616,38
50.89347982406616,11
50.89347982406616,0
50.89347982406616,3
50.89347982406616,20
50.89347982406616,0
50.89347982406616,6
50.89347982406616,0
50.89347982406616,13
50.972660064697266,5
50.972660064697266,24
50.972660064697266,13
50.972660064697266,5
50.972660064697266,1
50.972660064697266,0
50.972660064697266,0
50.972660064697266,0
50.972660064697266,20
51.06741261482239,4
51.06741261482239,3
51.06741261482239,47
51.06741261482239,1
51.06741261482239,42
51.06741261482239,6
51.06741261482239,11
51.06741261482239,0
51.06741261482239,0
51.16277718544006,32
51.16277718544006,1
51.16277718544006,1
51.16277718544006,2
51.16277718544006,3
51.16277718544006,0
51.16277718544006,0
51.16277718544006,0
51.16277718544006,5
51.16277718544006,0
51.269014835357666,0
51.269014835357666,2
51.269014835357666,30
51.269014835357666,0
51.269014835357666,5
51.269014835357666,3
51.269014835357666,3
51.269014835357666,8
51.269014835357666,0
51.369004249572754,14
51.369004249572754,0
51.369004249572754,4
51.369004249572754,2
51.369004249572754,14
51.369004249572754,22
51.369004249572754,0
51.369004249572754,0
51.369004249572754,0
51.369004249572754,3
51.46441698074341,15
51.46441698074341,16
51.46441698074341,19
51.46441698074341,0
51.46441698074341,15
51.46441698074341,0
51.46441698074341,0
51.46441698074341,4
51.46441698074341,8
51.55939173698425,0
51.55939173698425,0
51.55939173698425,7
51.55939173698425,30
51.55939173698425,15
51.55939173698425,4
51.55939173698425,0
51.55939173698425,0
51.55939173698425,0
51.55939173698425,3
51.65473198890686,29
51.65473198890686,0
51.65473198890686,1
51.65473198890686,4
51.65473198890686,34
51.65473198890686,8
51.65473198890686,4
51.65473198890686,3
51.65473198890686,0
51.65473198890686,3
51.7498254776001,16
51.7498254776001,15
51.7498254776001,10
51.7498254776001,0
51.7498254776001,0
51.7498254776001,6
51.7498254776001,1
51.7498254776001,0
51.7498254776001,0
51.7498254776001,1
51.86105155944824,1
51.86105155944824,11
51.86105155944824,1
51.86105155944824,0
51.86105155944824,2
51.86105155944824,81
51.86105155944824,16
51.86105155944824,0
51.86105155944824,11
51.86105155944824,0
51.95680236816406,33
51.95680236816406,0
51.95680236816406,11
51.95680236816406,0
51.95680236816406,0
51.95680236816406,13
51.95680236816406,6
51.95680236816406,9
51.95680236816406,20
52.05182647705078,26
52.05182647705078,12
52.05182647705078,0
52.05182647705078,8
52.05182647705078,0
52.05182647705078,0
52.05182647705078,0
52.05182647705078,32
52.05182647705078,3
52.05182647705078,3
52.16461133956909,27
52.16461133956909,0
52.16461133956909,7
52.16461133956909,13
52.16461133956909,5
52.16461133956909,17
52.16461133956909,0
52.16461133956909,8
52.16461133956909,4
52.16461133956909,0
52.258320569992065,2
52.258320569992065,1
52.258320569992065,8
52.258320569992065,0
52.258320569992065,15
52.258320569992065,0
52.258320569992065,0
52.258320569992065,0
52.258320569992065,22
52.35342478752136,0
52.35342478752136,1
52.35342478752136,0
52.35342478752136,7
52.35342478752136,4
52.35342478752136,0
52.35342478752136,15
52.35342478752136,0
52.35342478752136,0
52.35342478752136,3
52.44831848144531,1
52.44831848144531,4
52.44831848144531,5
52.44831848144531,13
52.44831848144531,0
52.44831848144531,0
52.44831848144531,0
52.44831848144531,5
52.44831848144531,1
52.544551372528076,5
52.544551372528076,9
52.544551372528076,0
52.544551372528076,4
52.544551372528076,5
52.544551372528076,18
52.544551372528076,44
52.544551372528076,0
52.544551372528076,32
52.643362283706665,16
52.643362283706665,4
52.643362283706665,0
52.643362283706665,0
52.643362283706665,0
52.643362283706665,16
52.643362283706665,0
52.643362283706665,13
52.643362283706665,10
52.643362283706665,0
52.74595928192139,0
52.74595928192139,15
52.74595928192139,10
52.7477080821991,11
52.7477080821991,0
52.7477080821991,0
52.7477080821991,0
52.7477080821991,16
52.7477080821991,0
52.7477080821991,5
52.84279942512512,0
52.84279942512512,7
52.84279942512512,0
52.84279942512512,1
52.84279942512512,1
52.84279942512512,0
52.84279942512512,0
52.84279942512512,35
52.84279942512512,20
52.84279942512512,5
52.94278883934021,5
52.94278883934021,0
52.94278883934021,0
52.94278883934021,0
52.94278883934021,0
52.94278883934021,0
52.94278883934021,5
52.94278883934021,0
52.94278883934021,1
53.047478675842285,0
53.047478675842285,15
53.047478675842285,0
53.047478675842285,3
53.047478675842285,2
53.047478675842285,6
53.047478675842285,0
53.047478675842285,0
53.047478675842285,0
53.047478675842285,12
53.047478675842285,2
53.1649751663208,9
53.1649751663208,0
53.1649751663208,2
53.1649751663208,0
53.1649751663208,9
53.1649751663208,19
53.1649751663208,1
53.1649751663208,8
53.1649751663208,0
53.1649751663208,4
53.1649751663208,0
53.33193254470825,1
53.33193254470825,16
53.33193254470825,3
53.33193254470825,4
53.33193254470825,0
53.33193254470825,6
53.33193254470825,17
53.33193254470825,0
53.33193254470825,1
53.33796572685242,20
53.33796572685242,0
53.33796572685242,0
53.33796572685242,5
53.33796572685242,18
53.33796572685242,9
53.33867287635803,0
53.33867287635803,0
53.519124269485474,0
53.519124269485474,0
53.519124269485474,0
53.519124269485474,0
53.519124269485474,0
53.519124269485474,24
53.519124269485474,0
53.519124269485474,0
53.519124269485474,21
53.519124269485474,0
53.519124269485474,0
53.519124269485474,0
53.519124269485474,0
53.519124269485474,0
53.519124269485474,0
53.519124269485474,1
53.519124269485474,17
53.519124269485474,21
53.65007400512695,0
53.65007400512695,10
53.65007400512695,14
53.65007400512695,0
53.65007400512695,0
53.65007400512695,0
53.65007400512695,15
53.65007400512695,5
53.65007400512695,8
53.65007400512695,1
53.65007400512695,18
53.65007400512695,2
53.65007400512695,0
53.65007400512695,10
53.76138687133789,7
53.76138687133789,0
53.76138687133789,0
53.76138687133789,7
53.76138687133789,0
53.76138687133789,9
53.76138687133789,0
53.76138687133789,0
53.76138687133789,0
53.76138687133789,4
53.872801780700684,14
53.872801780700684,0
53.872801780700684,0
53.872801780700684,9
53.872801780700684,3
53.872801780700684,0
53.872801780700684,2
53.872801780700684,0
53.872801780700684,0
53.872801780700684,2
53.872801780700684,0
53.96828556060791,7
53.96828556060791,14
53.96828556060791,0
53.96828556060791,0
53.96828556060791,7
53.96828556060791,0
53.96828556060791,0
53.96828556060791,0
53.96828556060791,4
53.96828556060791,0
54.07943081855774,8
54.07943081855774,8
54.07943081855774,2
54.07943081855774,4
54.07943081855774,6
54.07943081855774,5
54.07943081855774,0
54.07943081855774,8
54.07943081855774,13
54.07943081855774,2
54.07943081855774,0
54.17485070228577,3
54.17485070228577,13
54.17485070228577,3
54.17485070228577,0
54.17485070228577,20
54.17485070228577,13
54.17485070228577,4
54.17485070228577,13
54.17485070228577,5
54.17485070228577,0
54.2982919216156,6
54.2982919216156,3
54.2982919216156,19
54.2982919216156,0
54.2982919216156,22
54.2982919216156,0
54.2982919216156,21
54.2982919216156,0
54.2982919216156,4
54.2982919216156,4
54.2982919216156,0
54.398298263549805,7
54.398298263549805,1
54.398298263549805,9
54.398298263549805,4
54.398298263549805,0
54.398298263549805,0
54.398298263549805,12
54.398298263549805,0
54.398298263549805,0
54.398298263549805,7
54.49345779418945,0
54.49345779418945,0
54.49345779418945,0
54.49345779418945,9
54.49345779418945,6
54.49345779418945,0
54.49345779418945,0
54.49345779418945,7
54.49345779418945,18
54.60368347167969,1
54.60368347167969,3
54.60368347167969,0
54.60368347167969,11
54.60368347167969,0
54.60368347167969,0
54.60368347167969,0
54.60368347167969,0
54.60368347167969,7
54.60368347167969,21
54.60368347167969,0
54.6987042427063,15
54.6987042427063,9
54.6987042427063,4
54.6987042427063,0
54.6987042427063,6
54.6987042427063,2
54.6987042427063,22
54.6987042427063,0
54.6987042427063,0
54.6987042427063,4
54.81020212173462,0
54.81020212173462,8
54.81020212173462,4
54.81020212173462,1
54.81020212173462,10
54.81020212173462,7
54.81020212173462,4
54.81020212173462,11
54.81020212173462,19
54.81020212173462,5
54.905070543289185,11
54.905070543289185,0
54.905070543289185,10
54.905070543289185,0
54.905070543289185,0
54.905070543289185,0
54.905070543289185,0
54.905070543289185,3
54.905070543289185,2
54.905070543289185,0
54.905070543289185,2
55.01607656478882,0
55.01607656478882,0
55.01607656478882,8
55.01607656478882,20
55.01607656478882,0
55.01607656478882,0
55.01607656478882,0
55.01607656478882,0
55.01607656478882,1
55.01607656478882,0
55.11115765571594,0
55.11115765571594,0
55.11115765571594,0
55.11115765571594,0
55.11115765571594,3
55.11115765571594,25
55.11115765571594,0
55.11115765571594,0
55.11115765571594,0
55.206188917160034,1
55.206188917160034,16
55.206188917160034,0
55.206188917160034,4
55.206188917160034,8
55.206188917160034,0
55.206188917160034,0
55.206188917160034,1
55.206188917160034,0
55.206188917160034,11
55.30155897140503,32
55.30155897140503,0
55.30155897140503,7
55.30155897140503,25
55.30155897140503,0
55.30155897140503,10
55.30155897140503,0
55.30155897140503,12
55.30155897140503,1
55.407543659210205,11
55.407543659210205,4
55.407543659210205,8
55.407543659210205,0
55.407543659210205,10
55.407543659210205,3
55.407543659210205,2
55.407543659210205,4
55.407543659210205,16
55.407543659210205,0
55.50280022621155,0
55.50280022621155,0
55.50280022621155,6
55.50280022621155,0
55.50280022621155,2
55.50280022621155,0
55.50280022621155,0
55.50280022621155,0
55.50280022621155,0
55.602760553359985,0
55.602760553359985,0
55.602760553359985,9
55.602760553359985,0
55.602760553359985,0
55.602760553359985,16
55.602760553359985,0
55.602760553359985,2
55.602760553359985,0
55.602760553359985,3
55.698237895965576,7
55.698237895965576,2
55.698237895965576,0
55.698237895965576,0
55.698237895965576,3
55.698237895965576,0
55.698237895965576,20
55.698237895965576,6
55.698237895965576,6
55.79350805282593,1
55.79350805282593,1
55.79350805282593,0
55.79350805282593,0
55.79350805282593,8
55.79350805282593,0
55.79350805282593,0
55.79350805282593,0
55.79350805282593,0
55.79350805282593,0
55.88971185684204,23
55.88971185684204,1
55.88971185684204,0
55.88971185684204,0
55.88971185684204,0
55.88971185684204,17
55.88971185684204,5
55.88971185684204,5
55.88971185684204,1
55.88971185684204,8
55.99509119987488,6
55.99509119987488,3
55.99509119987488,20
55.99509119987488,4
55.99509119987488,0
55.99509119987488,27
55.99509119987488,4
55.99509119987488,0
55.99509119987488,22
56.095669746398926,0
56.095669746398926,0
56.095669746398926,16
56.095669746398926,0
56.095669746398926,1
56.095669746398926,0
56.095669746398926,1
56.095669746398926,2
56.095669746398926,0
56.095669746398926,4
56.19078731536865,0
56.19078731536865,5
56.19078731536865,32
56.19078731536865,7
56.19078731536865,9
56.19078731536865,0
56.19078731536865,0
56.19078731536865,0
56.19078731536865,0
56.19078731536865,1
56.288859844207764,0
56.288859844207764,0
56.288859844207764,2
56.288859844207764,1
56.288859844207764,0
56.288859844207764,0
56.288859844207764,0
56.288859844207764,0
56.288859844207764,27
56.3809871673584,12
56.3809871673584,0
56.3809871673584,0
56.3809871673584,0
56.3809871673584,2
56.3809871673584,0
56.3809871673584,0
56.3809871673584,0
56.3809871673584,10
56.3809871673584,3
56.475908041000366,0
56.475908041000366,10
56.475908041000366,8
56.475908041000366,6
56.475908041000366,3
56.475908041000366,0
56.475908041000366,12
56.475908041000366,0
56.475908041000366,1
56.57117199897766,13
56.57117199897766,0
56.57117199897766,10
56.57117199897766,5
56.57117199897766,0
56.57117199897766,0
56.57117199897766,0
56.57117199897766,0
56.57117199897766,21
56.57117199897766,0
56.68216896057129,0
56.68216896057129,3
56.68216896057129,1
56.68216896057129,4
56.68309020996094,1
56.68309020996094,0
56.68309020996094,0
56.68309020996094,5
56.68309020996094,0
56.68309020996094,0
56.77745318412781,0
56.77745318412781,2
56.77745318412781,0
56.77745318412781,10
56.77745318412781,0
56.77745318412781,7
56.77745318412781,0
56.77745318412781,0
56.77745318412781,9
56.87314748764038,0
56.87314748764038,0
56.87314748764038,0
56.87314748764038,0
56.87314748764038,0
56.87314748764038,43
56.87314748764038,0
56.87314748764038,0
56.87314748764038,13
56.87314748764038,10
56.96815514564514,0
56.96815514564514,0
56.96815514564514,2
56.96815514564514,6
56.96815514564514,3
56.96815514564514,6
56.96815514564514,0
56.96815514564514,0
56.96815514564514,3
56.96815514564514,3
57.08649754524231,0
57.08649754524231,6
57.08649754524231,16
57.08649754524231,14
57.08649754524231,4
57.08649754524231,0
57.08649754524231,11
57.08649754524231,0
57.08649754524231,0
57.08649754524231,0
57.174168825149536,0
57.174168825149536,8
57.174168825149536,0
57.174168825149536,16
57.174168825149536,4
57.174168825149536,7
57.174168825149536,2
57.174168825149536,3
57.174168825149536,2
57.174168825149536,7
57.28657603263855,0
57.28657603263855,1
57.28657603263855,9
57.28657603263855,0
57.28657603263855,15
57.28657603263855,0
57.28657603263855,0
57.28657603263855,0
57.28657603263855,0
57.28657603263855,0
57.38041400909424,0
57.38041400909424,7
57.38041400909424,0
57.38041400909424,4
57.38041400909424,7
57.38041400909424,0
57.38041400909424,16
57.38041400909424,6
57.38041400909424,0
57.38041400909424,0
57.49270296096802,8
57.49270296096802,0
57.49270296096802,3
57.49270296096802,0
57.49270296096802,18
57.49270296096802,12
57.49270296096802,0
57.49270296096802,0
57.49270296096802,7
57.49270296096802,1
57.58644723892212,8
57.58644723892212,0
57.58644723892212,5
57.58644723892212,2
57.58644723892212,7
57.58644723892212,0
57.58644723892212,0
57.58644723892212,8
57.58644723892212,2
57.58644723892212,0
57.68168926239014,0
57.68168926239014,1
57.68168926239014,0
57.68168926239014,0
57.68168926239014,7
57.68168926239014,3
57.68168926239014,4
57.68168926239014,0
57.68168926239014,23
57.68168926239014,2
57.793511152267456,0
57.793511152267456,0
57.793511152267456,3
57.793511152267456,0
57.793511152267456,3
57.793511152267456,0
57.793511152267456,11
57.793511152267456,0
57.793511152267456,2
57.793511152267456,0
57.88873863220215,27
57.88873863220215,0
57.88873863220215,1
57.88873863220215,0
57.88873863220215,0
57.88873863220215,0
57.88873863220215,5
57.88873863220215,0
57.88873863220215,1
57.984832525253296,5
57.984832525253296,0
57.984832525253296,2
57.984832525253296,1
57.984832525253296,6
57.984832525253296,0
57.984832525253296,0
57.984832525253296,0
57.984832525253296,4
