Time,EMG
0.7680919170379639,1
0.7680919170379639,12
0.7680919170379639,11
0.7680919170379639,34
0.7680919170379639,7
0.7680919170379639,23
0.7680919170379639,3
0.7680919170379639,20
0.7680919170379639,1
0.7680919170379639,16
0.7680919170379639,0
0.7680919170379639,2
0.7680919170379639,7
0.7680919170379639,15
0.7680919170379639,4
0.7680919170379639,5
0.7680919170379639,0
0.7680919170379639,3
0.7680919170379639,0
0.7680919170379639,6
0.7680919170379639,0
0.7680919170379639,2
0.7680919170379639,9
0.7680919170379639,0
0.7680919170379639,2
0.7680919170379639,2
0.7680919170379639,0
0.7680919170379639,2
0.7680919170379639,0
0.7680919170379639,11
0.7680919170379639,12
0.7680919170379639,6
0.7680919170379639,0
0.7680919170379639,1
0.7680919170379639,0
0.7680919170379639,1
0.7680919170379639,2
0.7680919170379639,7
0.7680919170379639,14
0.7680919170379639,9
0.7680919170379639,25
0.7680919170379639,1
0.7680919170379639,16
0.7680919170379639,10
0.7680919170379639,15
0.7680919170379639,10
0.7680919170379639,23
0.7680919170379639,8
0.7680919170379639,16
0.7680919170379639,2
0.7680919170379639,4
0.7680919170379639,5
0.7680919170379639,20
0.7680919170379639,8
0.7680919170379639,32
0.7680919170379639,14
0.7680919170379639,23
0.7680919170379639,1
0.7680919170379639,21
0.7680919170379639,0
0.7680919170379639,4
0.7680919170379639,2
0.7680919170379639,19
0.7680919170379639,1
0.7680919170379639,0
0.7680919170379639,3
0.7680919170379639,0
0.7680919170379639,0
0.7680919170379639,3
0.7680919170379639,5
0.7680919170379639,0
0.7680919170379639,0
0.7680919170379639,0
0.7680919170379639,0
0.7680919170379639,0
0.7680919170379639,0
0.7680919170379639,0
0.7680919170379639,0
0.7680919170379639,11
0.7680919170379639,14
0.7680919170379639,5
0.7680919170379639,9
0.7680919170379639,0
0.7680919170379639,1
0.7680919170379639,7
0.7680919170379639,0
0.7680919170379639,3
0.7680919170379639,7
0.7680919170379639,9
0.7680919170379639,23
0.7680919170379639,19
0.7680919170379639,18
0.7680919170379639,3
0.7680919170379639,15
0.7680919170379639,9
0.7680919170379639,17
0.7680919170379639,9
0.7680919170379639,24
0.7680919170379639,0
0.7680919170379639,13
0.7680919170379639,0
0.7839922904968262,17
0.7839922904968262,35
0.7839922904968262,20
0.7839922904968262,7
0.7839922904968262,27
0.7839922904968262,0
0.7844195365905762,25
0.7844195365905762,1
0.7844195365905762,21
0.7844195365905762,0
0.7844195365905762,7
0.7844195365905762,0
0.7844195365905762,14
0.7844195365905762,0
0.7844195365905762,0
0.7844195365905762,0
0.7844195365905762,6
0.7844195365905762,5
0.7844195365905762,9
0.7844195365905762,0
0.7844195365905762,0
0.7844195365905762,1
0.7844195365905762,0
0.7844195365905762,1
0.9868946075439453,2
0.9868946075439453,0
0.9868946075439453,2
0.9868946075439453,9
0.9868946075439453,15
0.9868946075439453,0
0.9868946075439453,0
0.9868946075439453,6
0.9868946075439453,2
0.9868946075439453,0
0.9868946075439453,2
0.9878015518188477,0
0.9878015518188477,5
0.9878015518188477,15
0.9878015518188477,9
0.9878015518188477,18
0.9878015518188477,13
0.9878015518188477,16
0.9878015518188477,4
0.9878015518188477,12
1.2239899635314941,9
1.2239899635314941,22
1.2239899635314941,11
1.2239899635314941,25
1.2239899635314941,9
1.2239899635314941,7
1.2239899635314941,10
1.2239899635314941,30
1.2239899635314941,18
1.2300159931182861,20
1.2300159931182861,16
1.2300159931182861,19
1.2300159931182861,1
1.2300159931182861,12
1.2300159931182861,0
1.2307350635528564,13
1.2307350635528564,1
1.2307350635528564,17
1.2307350635528564,7
1.2307350635528564,6
1.2307350635528564,0
1.2307350635528564,0
1.2307350635528564,5
1.2307350635528564,7
1.431908130645752,0
1.438023567199707,1
1.438023567199707,0
1.438023567199707,0
1.438023567199707,0
1.4385411739349365,0
1.4385411739349365,1
1.4385411739349365,0
1.4385411739349365,8
1.4385411739349365,17
1.4385411739349365,1
1.4385411739349365,0
1.4385411739349365,13
1.4385411739349365,0
1.4385411739349365,1
1.4385411739349365,0
1.4385411739349365,2
1.4385411739349365,7
1.4385411739349365,7
1.4385411739349365,10
1.4385411739349365,16
1.6617841720581055,9
1.6617841720581055,22
1.6672449111938477,9
1.6672449111938477,13
1.6672449111938477,8
1.6672449111938477,23
1.6672449111938477,7
1.6672449111938477,20
1.6672449111938477,4
1.6672449111938477,8
1.6672449111938477,7
1.6672449111938477,24
1.6672449111938477,10
1.6686129570007324,29
1.6686129570007324,7
1.6686129570007324,6
1.6686129570007324,6
1.6686129570007324,20
1.6686129570007324,1
1.6686129570007324,14
1.6686129570007324,0
1.6686129570007324,11
1.83699369430542,0
1.83699369430542,9
1.83699369430542,0
1.83699369430542,0
1.83699369430542,0
1.83699369430542,4
1.83699369430542,2
1.83699369430542,0
1.83699369430542,0
1.83699369430542,3
1.83699369430542,0
1.83699369430542,3
1.83699369430542,0
1.83699369430542,10
1.83699369430542,0
1.83699369430542,15
1.83699369430542,10
1.9461874961853027,3
1.9461874961853027,0
1.9461874961853027,0
1.9461874961853027,0
1.9461874961853027,3
1.9461874961853027,1
1.9461874961853027,3
1.9461874961853027,13
1.9461874961853027,15
1.9461874961853027,15
2.050586462020874,11
2.050586462020874,15
2.050586462020874,6
2.050586462020874,18
2.050586462020874,5
2.050586462020874,12
2.050586462020874,10
2.050586462020874,18
2.050586462020874,0
2.050586462020874,3
2.050586462020874,1
2.1511104106903076,15
2.1511104106903076,7
2.1511104106903076,24
2.1511104106903076,6
2.1511104106903076,20
2.1511104106903076,3
2.1511104106903076,14
2.1511104106903076,1
2.1511104106903076,18
2.1511104106903076,0
2.2665772438049316,7
2.2665772438049316,15
2.2665772438049316,21
2.2665772438049316,2
2.2665772438049316,5
2.2665772438049316,0
2.2665772438049316,5
2.2665772438049316,5
2.2665772438049316,4
2.2665772438049316,2
2.2665772438049316,0
2.3742728233337402,1
2.3742728233337402,0
2.3742728233337402,8
2.3742728233337402,2
2.3742728233337402,11
2.3742728233337402,63
2.3742728233337402,27
2.3742728233337402,19
2.3742728233337402,26
2.3742728233337402,5
2.3742728233337402,6
2.4681012630462646,29
2.4681012630462646,32
2.4681012630462646,3
2.4681012630462646,19
2.4681012630462646,22
2.4681012630462646,26
2.4681012630462646,0
2.4681012630462646,19
2.4681012630462646,16
2.4681012630462646,32
2.580141544342041,10
2.580141544342041,38
2.580141544342041,15
2.580141544342041,22
2.580141544342041,4
2.580141544342041,35
2.580141544342041,41
2.580141544342041,57
2.580141544342041,8
2.580141544342041,31
2.6909587383270264,29
2.6909587383270264,65
2.6909587383270264,75
2.6909587383270264,17
2.6909587383270264,0
2.6909587383270264,33
2.6909587383270264,0
2.6909587383270264,64
2.6909587383270264,133
2.6918928623199463,23
2.786374092102051,27
2.786374092102051,6
2.786374092102051,13
2.786374092102051,0
2.786374092102051,33
2.7969908714294434,23
2.7969908714294434,9
2.7969908714294434,45
2.7969908714294434,0
2.7969908714294434,0
2.7969908714294434,15
2.8927903175354004,10
2.8927903175354004,17
2.8927903175354004,6
2.8927903175354004,14
2.8927903175354004,6
2.8927903175354004,2
2.8927903175354004,5
2.8927903175354004,13
2.8927903175354004,15
2.8979272842407227,51
2.9944937229156494,17
2.9944937229156494,0
2.9944937229156494,46
2.9944937229156494,19
2.9944937229156494,45
2.9944937229156494,49
2.9944937229156494,10
2.9944937229156494,34
2.9944937229156494,3
2.9944937229156494,146
3.1049277782440186,102
3.1049277782440186,75
3.1049277782440186,13
3.1049277782440186,37
3.1049277782440186,0
3.1049277782440186,29
3.1049277782440186,10
3.1049277782440186,31
3.1049277782440186,48
3.1049277782440186,39
3.1049277782440186,9
3.200920581817627,20
3.200920581817627,56
3.200920581817627,83
3.200920581817627,0
3.200920581817627,26
3.200920581817627,1
3.200920581817627,0
3.200920581817627,8
3.200920581817627,4
3.200920581817627,0
3.312241554260254,0
3.312241554260254,51
3.312241554260254,55
3.312241554260254,48
3.312241554260254,36
3.312241554260254,3
3.312241554260254,8
3.312241554260254,18
3.312241554260254,0
3.312241554260254,38
3.4235589504241943,35
3.4235589504241943,6
3.4235589504241943,1
3.4235589504241943,82
3.4235589504241943,135
3.4235589504241943,11
3.4235589504241943,103
3.4235589504241943,28
3.4235589504241943,39
3.4235589504241943,13
3.4235589504241943,12
3.534785032272339,29
3.534785032272339,3
3.534785032272339,39
3.534785032272339,10
3.534785032272339,142
3.534785032272339,144
3.534785032272339,80
3.534785032272339,4
3.534785032272339,46
3.534785032272339,9
3.6406190395355225,86
3.6406190395355225,85
3.6406190395355225,56
3.6406190395355225,6
3.6406190395355225,45
3.6406190395355225,1
3.6406190395355225,10
3.6406190395355225,46
3.6406190395355225,0
3.6406190395355225,6
3.6406190395355225,13
3.738327980041504,57
3.738327980041504,60
3.738327980041504,114
3.738327980041504,15
3.738327980041504,0
3.738327980041504,3
3.738327980041504,83
3.738327980041504,109
3.738327980041504,7
3.738327980041504,98
3.84959077835083,1
3.84959077835083,17
3.84959077835083,10
3.84959077835083,79
3.84959077835083,90
3.84959077835083,151
3.84959077835083,17
3.84959077835083,2
3.84959077835083,76
3.84959077835083,11
3.954078435897827,81
3.954078435897827,60
3.9556872844696045,49
3.9556872844696045,2
3.9556872844696045,87
3.9556872844696045,63
3.9556872844696045,65
3.9556872844696045,5
3.9556872844696045,37
3.9556872844696045,5
4.058238744735718,53
4.058238744735718,34
4.058238744735718,70
4.058238744735718,14
4.058238744735718,70
4.058238744735718,34
4.058238744735718,71
4.058238744735718,83
4.058238744735718,131
4.058238744735718,100
4.158724546432495,85
4.158724546432495,9
4.158724546432495,41
4.158724546432495,27
4.158724546432495,78
4.158724546432495,189
4.158724546432495,28
4.158724546432495,24
4.158724546432495,2
4.158724546432495,9
4.258110284805298,99
4.258110284805298,142
4.258110284805298,144
4.258110284805298,3
4.258110284805298,37
4.258110284805298,0
4.258110284805298,0
4.258110284805298,105
4.258110284805298,38
4.258110284805298,8
4.356714963912964,1
4.356714963912964,6
4.356714963912964,17
4.356714963912964,93
4.356714963912964,167
4.356714963912964,36
4.356714963912964,11
4.356714963912964,1
4.356714963912964,22
4.356714963912964,154
4.452035427093506,120
4.452035427093506,6
4.452035427093506,6
4.452035427093506,44
4.452035427093506,0
4.452035427093506,198
4.452035427093506,175
4.452035427093506,72
4.452035427093506,47
4.542627811431885,26
4.542627811431885,23
4.542627811431885,57
4.542627811431885,90
4.542627811431885,27
4.542627811431885,0
4.542627811431885,44
4.542627811431885,124
4.542627811431885,5
4.637901306152344,0
4.637901306152344,0
4.637901306152344,9
4.637901306152344,54
4.637901306152344,153
4.637901306152344,121
4.637901306152344,48
4.637901306152344,12
4.637901306152344,1
4.72608757019043,104
4.72608757019043,3
4.72608757019043,53
4.72608757019043,73
4.72608757019043,10
4.72608757019043,61
4.72608757019043,72
4.72608757019043,69
4.72608757019043,70
4.72608757019043,4
4.826234340667725,0
4.826234340667725,24
4.826234340667725,15
4.826234340667725,39
4.826234340667725,1
4.826234340667725,86
4.826234340667725,104
4.826234340667725,37
4.826234340667725,2
4.936296701431274,28
4.936296701431274,77
4.936296701431274,26
4.936296701431274,22
4.936296701431274,22
4.936296701431274,11
4.936296701431274,41
4.936296701431274,66
4.936296701431274,104
4.936296701431274,22
5.040599584579468,34
5.041606664657593,41
5.041606664657593,41
5.041606664657593,15
5.041606664657593,112
5.041606664657593,13
5.041606664657593,7
5.041606664657593,12
5.041606664657593,51
5.041606664657593,4
5.041606664657593,81
5.143086671829224,182
5.143086671829224,1
5.143086671829224,21
5.143086671829224,6
5.143086671829224,10
5.143086671829224,57
5.143086671829224,66
5.143086671829224,41
5.143086671829224,37
5.143086671829224,10
5.246320724487305,19
5.246320724487305,12
5.246320724487305,87
5.246320724487305,136
5.246320724487305,88
5.246320724487305,25
5.246320724487305,23
5.246320724487305,56
5.248067140579224,117
5.248067140579224,35
5.342777252197266,87
5.342777252197266,4
5.342777252197266,104
5.342777252197266,105
5.342777252197266,88
5.342777252197266,0
5.342777252197266,30
5.342777252197266,27
5.342777252197266,37
5.342777252197266,25
5.45002555847168,15
5.45002555847168,96
5.45002555847168,4
5.45002555847168,40
5.45002555847168,109
5.45002555847168,52
5.45002555847168,16
5.45002555847168,1
5.45002555847168,0
5.45002555847168,1
5.550632953643799,58
5.550632953643799,73
5.550632953643799,105
5.550632953643799,63
5.550632953643799,33
5.550632953643799,5
5.550632953643799,18
5.550632953643799,19
5.550632953643799,0
5.550632953643799,0
5.655222177505493,0
5.655222177505493,2
5.655222177505493,16
5.655222177505493,50
5.655222177505493,21
5.655222177505493,84
5.655222177505493,66
5.655222177505493,41
5.655222177505493,7
5.655222177505493,38
5.757322788238525,13
5.757322788238525,90
5.757322788238525,39
5.757322788238525,0
5.757322788238525,7
5.757322788238525,47
5.757322788238525,20
5.757322788238525,149
5.757322788238525,82
5.757322788238525,13
5.8529627323150635,30
5.8529627323150635,77
5.8529627323150635,10
5.8529627323150635,163
5.8529627323150635,91
5.8529627323150635,27
5.8529627323150635,12
5.8529627323150635,47
5.8529627323150635,14
5.8529627323150635,51
5.957190036773682,50
5.957190036773682,0
5.957190036773682,5
5.957190036773682,6
5.957190036773682,6
5.957190036773682,53
5.957190036773682,76
5.957190036773682,0
5.957190036773682,1
5.957190036773682,0
6.045002222061157,1
6.045002222061157,29
6.045002222061157,60
6.045002222061157,13
6.045002222061157,14
6.045002222061157,22
6.045002222061157,45
6.045002222061157,5
6.045002222061157,160
6.156636476516724,57
6.156636476516724,29
6.156636476516724,8
6.156636476516724,26
6.156636476516724,44
6.156636476516724,8
6.156636476516724,0
6.156636476516724,37
6.156636476516724,0
6.156636476516724,2
6.254497051239014,41
6.254497051239014,42
6.254497051239014,34
6.254497051239014,76
6.2565038204193115,21
6.2565038204193115,128
6.2565038204193115,106
6.2565038204193115,90
6.2565038204193115,12
6.2565038204193115,24
6.347208023071289,14
6.347208023071289,40
6.347208023071289,90
6.347208023071289,410
6.347208023071289,42
6.347208023071289,30
6.347208023071289,9
6.347208023071289,5
6.347208023071289,7
6.347208023071289,5
6.443123817443848,0
6.443123817443848,0
6.443123817443848,26
6.443123817443848,28
6.443123817443848,2
6.443123817443848,68
6.443123817443848,53
6.443123817443848,4
6.443123817443848,101
6.539736032485962,2
6.539736032485962,25
6.539736032485962,32
6.539736032485962,10
6.539736032485962,14
6.539736032485962,9
6.539736032485962,3
6.539736032485962,206
6.539736032485962,173
6.634080171585083,58
6.634080171585083,29
6.634080171585083,68
6.634080171585083,10
6.634080171585083,286
6.634080171585083,148
6.634080171585083,36
6.634080171585083,38
6.634080171585083,15
6.634080171585083,8
6.739478588104248,231
6.739478588104248,123
6.739478588104248,111
6.739478588104248,72
6.739478588104248,28
6.739478588104248,54
6.739478588104248,37
6.739478588104248,55
6.739478588104248,76
6.829336166381836,238
6.829336166381836,328
6.829336166381836,532
6.829336166381836,320
6.829336166381836,66
6.829336166381836,172
6.829336166381836,627
6.829336166381836,120
6.829336166381836,220
6.829336166381836,7
6.9375646114349365,124
6.9375646114349365,281
6.9375646114349365,170
6.9375646114349365,79
6.9375646114349365,268
6.9375646114349365,243
6.9375646114349365,228
6.9375646114349365,387
6.9375646114349365,232
7.036651134490967,192
7.036651134490967,371
7.036651134490967,98
7.036651134490967,91
7.036651134490967,268
7.036651134490967,121
7.036651134490967,369
7.036651134490967,509
7.036651134490967,33
7.036651134490967,31
7.138163328170776,204
7.138163328170776,43
7.138163328170776,430
7.138163328170776,432
7.138163328170776,623
7.138163328170776,107
7.138163328170776,272
7.138163328170776,164
7.138163328170776,309
7.138163328170776,614
7.237555980682373,136
7.237555980682373,385
7.237555980682373,501
7.237555980682373,689
7.237555980682373,167
7.237555980682373,167
7.237555980682373,758
7.237555980682373,528
7.237555980682373,196
7.237555980682373,108
7.339462995529175,317
7.339462995529175,126
7.339462995529175,284
7.339462995529175,166
7.339462995529175,786
7.339462995529175,406
7.339462995529175,31
7.339462995529175,1009
7.339462995529175,224
7.4386372566223145,180
7.4386372566223145,52
7.4386372566223145,136
7.4386372566223145,365
7.4386372566223145,36
7.4386372566223145,330
7.4386372566223145,804
7.4386372566223145,356
7.4386372566223145,1008
7.4386372566223145,217
7.539141893386841,61
7.539141893386841,567
7.539801120758057,415
7.539801120758057,208
7.539801120758057,537
7.539801120758057,116
7.539801120758057,257
7.539801120758057,256
7.539801120758057,357
7.539801120758057,83
7.6400933265686035,679
7.6400933265686035,384
7.6400933265686035,1023
7.6400933265686035,71
7.6400933265686035,185
7.6400933265686035,428
7.6400933265686035,503
7.6400933265686035,84
7.6400933265686035,263
7.6400933265686035,25
7.7413458824157715,146
7.741851806640625,255
7.741851806640625,644
7.741851806640625,95
7.741851806640625,79
7.741851806640625,158
7.741851806640625,7
7.741851806640625,240
7.741851806640625,318
7.741851806640625,392
7.841466188430786,305
7.841466188430786,278
7.841466188430786,408
7.841466188430786,389
7.841466188430786,110
7.841466188430786,170
7.841466188430786,226
7.841466188430786,356
7.841466188430786,234
7.936672210693359,779
7.936672210693359,290
7.936672210693359,585
7.936672210693359,241
7.936672210693359,142
7.936672210693359,65
7.936672210693359,42
7.936672210693359,596
7.936672210693359,184
7.936672210693359,67
8.032549142837524,61
8.032549142837524,701
8.032549142837524,63
8.032549142837524,191
8.032549142837524,489
8.032549142837524,283
8.032549142837524,296
8.032549142837524,62
8.032549142837524,285
8.12752652168274,399
8.12752652168274,805
8.12752652168274,52
8.12752652168274,392
8.12752652168274,371
8.12752652168274,673
8.12752652168274,61
8.12752652168274,67
8.12752652168274,164
8.221233606338501,817
8.221233606338501,212
8.221233606338501,41
8.221233606338501,27
8.221233606338501,329
8.221233606338501,227
8.221233606338501,14
8.221233606338501,291
8.22273850440979,49
8.22273850440979,207
8.302387714385986,504
8.302387714385986,410
8.302387714385986,708
8.302387714385986,155
8.318397283554077,222
8.318397283554077,635
8.318397283554077,416
8.318397283554077,141
8.318397283554077,347
8.417558431625366,1
8.417558431625366,230
8.417558431625366,35
8.419564962387085,150
8.419564962387085,281
8.419564962387085,253
8.419564962387085,748
8.419564962387085,93
8.419564962387085,457
8.419564962387085,84
8.509203910827637,48
8.509203910827637,43
8.509203910827637,91
8.509203910827637,206
8.509203910827637,667
8.509203910827637,109
8.509203910827637,139
8.509203910827637,264
8.509203910827637,772
8.605022192001343,364
8.605022192001343,275
8.605022192001343,11
8.605022192001343,2
8.605022192001343,425
8.605022192001343,98
8.605022192001343,331
8.605022192001343,2
8.605022192001343,46
8.605022192001343,102
8.719264507293701,41
8.719264507293701,13
8.719264507293701,365
8.719264507293701,624
8.719264507293701,850
8.719264507293701,544
8.719264507293701,387
8.719264507293701,400
8.719264507293701,158
8.719264507293701,39
8.811506271362305,1008
8.811506271362305,147
8.811506271362305,307
8.811506271362305,43
8.811506271362305,840
8.811506271362305,112
8.811506271362305,160
8.811506271362305,74
8.811506271362305,14
8.811506271362305,896
8.922889232635498,510
8.922889232635498,155
8.924906015396118,429
8.924906015396118,159
8.924906015396118,501
8.924906015396118,681
8.924906015396118,185
8.924906015396118,205
8.924906015396118,27
8.924906015396118,834
9.017984867095947,557
9.017984867095947,8
9.017984867095947,6
9.017984867095947,103
9.017984867095947,278
9.017984867095947,364
9.017984867095947,228
9.017984867095947,351
9.017984867095947,148
9.017984867095947,223
9.133716583251953,481
9.133716583251953,745
9.133716583251953,124
9.135740756988525,72
9.135740756988525,92
9.135740756988525,984
9.135740756988525,125
9.135740756988525,284
9.135740756988525,421
9.135740756988525,143
9.135740756988525,28
9.234009981155396,196
9.234009981155396,5
9.234009981155396,55
9.234009981155396,389
9.234009981155396,1
9.234009981155396,225
9.234009981155396,652
9.234009981155396,60
9.234009981155396,348
9.234009981155396,906
9.336461067199707,363
9.336461067199707,72
9.336461067199707,169
9.336461067199707,492
9.336461067199707,221
9.336461067199707,103
9.336461067199707,104
9.336461067199707,109
9.336461067199707,131
9.336461067199707,79
9.442059755325317,835
9.442059755325317,15
9.442059755325317,341
9.442059755325317,148
9.442059755325317,106
9.442059755325317,713
9.442059755325317,122
9.442059755325317,746
9.442059755325317,277
9.442059755325317,46
9.54521632194519,11
9.54521632194519,24
9.54521632194519,119
9.54521632194519,31
9.54521632194519,1023
9.54521632194519,53
9.54521632194519,476
9.54521632194519,689
9.54521632194519,14
9.54722261428833,156
9.6396644115448,34
9.6396644115448,110
9.6396644115448,23
9.6396644115448,1023
9.6396644115448,242
9.6396644115448,64
9.6396644115448,20
9.6396644115448,69
9.6396644115448,422
9.6396644115448,344
9.744167566299438,56
9.744167566299438,325
9.744167566299438,188
9.744167566299438,115
9.744167566299438,98
9.744167566299438,111
9.744167566299438,554
9.744167566299438,110
9.744167566299438,89
9.8396155834198,231
9.8396155834198,38
9.8396155834198,58
9.8396155834198,426
9.8396155834198,133
9.8396155834198,48
9.8396155834198,60
9.8396155834198,53
9.84476923942566,43
9.84476923942566,170
9.940854787826538,352
9.940854787826538,79
9.940854787826538,385
9.940854787826538,63
9.940854787826538,462
9.940854787826538,91
9.940854787826538,49
9.940854787826538,0
9.940854787826538,0
9.940854787826538,3
10.045937061309814,9
10.045937061309814,145
10.045937061309814,201
10.045937061309814,92
10.045937061309814,43
10.045937061309814,0
10.045937061309814,5
10.045937061309814,16
10.045937061309814,3
10.045937061309814,23
10.14633560180664,209
10.14633560180664,52
10.14633560180664,57
10.14633560180664,55
10.14633560180664,267
10.14633560180664,265
10.14633560180664,15
10.14633560180664,52
10.14633560180664,10
10.14633560180664,28
10.242278814315796,23
10.242278814315796,39
10.242278814315796,31
10.242278814315796,28
10.242278814315796,19
10.242278814315796,95
10.242278814315796,1
10.242278814315796,51
10.242278814315796,6
10.346356630325317,96
10.346356630325317,74
10.346356630325317,46
10.346356630325317,14
10.346356630325317,15
10.346356630325317,135
10.346356630325317,39
10.346356630325317,108
10.346356630325317,59
10.346356630325317,5
10.447704792022705,0
10.447704792022705,5
10.447704792022705,8
10.447704792022705,0
10.447704792022705,73
10.447704792022705,77
10.447704792022705,135
10.447704792022705,230
10.447704792022705,0
10.447704792022705,23
10.5433828830719,5
10.5433828830719,4
10.5433828830719,60
10.5433828830719,2
10.5433828830719,1
10.5433828830719,101
10.5433828830719,229
10.5433828830719,22
10.5433828830719,4
10.5433828830719,74
10.643038272857666,28
10.643038272857666,40
10.643038272857666,158
10.643038272857666,18
10.643038272857666,36
10.643038272857666,4
10.643038272857666,9
10.643038272857666,71
10.643038272857666,40
10.740780591964722,103
10.740780591964722,9
10.740780591964722,29
10.740780591964722,4
10.740780591964722,93
10.742395162582397,14
10.742395162582397,45
10.742395162582397,44
10.742395162582397,14
10.742395162582397,8
10.83742356300354,3
10.83742356300354,151
10.83742356300354,195
10.83742356300354,160
10.83742356300354,35
10.83742356300354,12
10.83742356300354,1
10.83742356300354,5
10.83742356300354,0
10.93984317779541,178
10.93984317779541,4
10.93984317779541,80
10.93984317779541,144
10.93984317779541,6
10.93984317779541,28
10.93984317779541,120
10.93984317779541,0
10.93984317779541,16
10.93984317779541,61
11.039777040481567,27
11.039777040481567,152
11.039777040481567,49
11.04178261756897,29
11.04178261756897,33
11.04178261756897,16
11.04178261756897,135
11.04178261756897,0
11.04178261756897,20
11.04178261756897,8
11.143627882003784,3
11.143627882003784,2
11.143627882003784,21
11.143627882003784,0
11.143627882003784,58
11.143627882003784,17
11.143627882003784,34
11.14563250541687,97
11.14563250541687,68
11.14563250541687,25
11.242039442062378,22
11.242039442062378,0
11.242039442062378,19
11.242039442062378,16
11.242039442062378,121
11.242039442062378,40
11.242039442062378,49
11.242039442062378,13
11.242039442062378,0
11.242039442062378,0
11.242039442062378,0
11.3526930809021,16
11.3526930809021,90
11.3526930809021,186
11.3526930809021,2
11.3526930809021,11
11.3526930809021,5
11.3526930809021,8
11.3526930809021,13
11.3526930809021,38
11.3526930809021,147
11.462043046951294,15
11.462043046951294,32
11.462043046951294,22
11.462043046951294,1
11.462043046951294,37
11.462043046951294,27
11.462043046951294,49
11.462043046951294,159
11.462043046951294,83
11.462043046951294,52
11.558742046356201,24
11.558742046356201,37
11.558742046356201,6
11.558742046356201,8
11.558742046356201,17
11.558742046356201,55
11.558742046356201,47
11.558742046356201,50
11.558742046356201,161
11.558742046356201,0
11.558742046356201,66
11.670051574707031,39
11.670051574707031,44
11.670051574707031,36
11.670051574707031,34
11.670051574707031,6
11.670051574707031,38
11.670051574707031,98
11.670051574707031,83
11.670051574707031,25
11.670051574707031,182
11.670051574707031,18
11.782854318618774,8
11.782854318618774,1
11.782854318618774,0
11.782854318618774,112
11.782854318618774,3
11.782854318618774,5
11.782854318618774,8
11.782854318618774,15
11.782854318618774,22
11.782854318618774,29
11.892959594726562,0
11.892959594726562,31
11.892959594726562,0
11.892959594726562,2
11.892959594726562,10
11.892959594726562,24
11.892959594726562,0
11.892959594726562,13
11.892959594726562,114
11.892959594726562,29
11.892959594726562,8
11.988611698150635,41
11.988611698150635,15
11.988611698150635,38
11.988611698150635,18
11.988611698150635,25
11.988611698150635,6
11.988611698150635,39
11.988611698150635,6
11.988611698150635,13
11.988611698150635,8
12.085654735565186,51
12.085654735565186,13
12.085654735565186,38
12.085654735565186,5
12.085654735565186,20
12.085654735565186,60
12.085654735565186,88
12.085654735565186,3
12.085654735565186,46
12.181463718414307,8
12.181463718414307,12
12.181463718414307,0
12.181463718414307,12
12.181463718414307,5
12.191471099853516,7
12.191471099853516,1
12.191471099853516,0
12.191471099853516,0
12.191471099853516,0
12.277934551239014,2
12.277934551239014,3
12.277934551239014,0
12.277934551239014,23
12.277934551239014,16
12.277934551239014,9
12.277934551239014,5
12.288063526153564,3
12.288063526153564,3
12.383426427841187,8
12.383426427841187,1
12.383426427841187,10
12.383426427841187,12
12.383426427841187,16
12.383426427841187,27
12.383426427841187,17
12.383426427841187,28
12.383426427841187,16
12.383426427841187,29
12.467775821685791,11
12.467775821685791,29
12.467775821685791,19
12.467775821685791,31
12.467775821685791,5
12.467775821685791,22
12.467775821685791,12
12.467775821685791,39
12.467775821685791,18
12.575648546218872,43
12.575648546218872,15
12.575648546218872,31
12.575648546218872,8
12.575648546218872,29
12.575648546218872,0
12.575648546218872,0
12.575648546218872,12
12.577653646469116,32
12.577653646469116,7
12.676348686218262,9
12.676348686218262,0
12.676348686218262,10
12.676348686218262,10
12.676348686218262,8
12.676348686218262,0
12.676348686218262,0
12.676348686218262,2
12.676348686218262,0
12.676348686218262,3
12.755776405334473,7
12.755776405334473,0
12.755776405334473,8
12.755776405334473,16
12.755776405334473,14
12.755776405334473,3
12.755776405334473,3
12.755776405334473,1
12.755776405334473,7
12.867195844650269,3
12.867195844650269,5
12.867195844650269,0
12.867195844650269,18
12.867195844650269,27
12.867195844650269,17
12.867195844650269,28
12.867195844650269,16
12.867195844650269,28
12.962607383728027,18
12.962607383728027,28
12.962607383728027,20
12.962607383728027,33
12.962607383728027,8
12.962607383728027,23
12.962607383728027,10
12.962607383728027,35
12.962607383728027,15
12.962607383728027,44
13.057791233062744,13
13.057791233062744,39
13.057791233062744,8
13.057791233062744,21
13.057791233062744,3
13.057791233062744,17
13.057791233062744,3
13.057791233062744,31
13.057791233062744,17
13.152508974075317,9
13.152508974075317,3
13.152508974075317,6
13.152508974075317,5
13.152508974075317,8
13.152508974075317,2
13.152508974075317,0
13.152508974075317,4
13.152508974075317,0
13.24796175956726,3
13.24796175956726,7
13.24796175956726,0
13.24796175956726,10
13.24796175956726,16
13.24796175956726,20
13.24796175956726,2
13.24796175956726,5
13.24796175956726,3
13.24796175956726,12
13.343433618545532,2
13.343433618545532,8
13.343433618545532,11
13.343433618545532,17
13.343433618545532,26
13.343433618545532,19
13.343433618545532,28
13.343433618545532,16
13.343433618545532,29
13.443451404571533,17
13.443451404571533,27
13.443451404571533,25
13.443451404571533,33
13.443451404571533,8
13.443451404571533,19
13.443451404571533,13
13.443451404571533,35
13.443451404571533,23
13.443451404571533,35
13.541576147079468,19
13.541576147079468,35
13.541576147079468,7
13.541576147079468,31
13.541576147079468,1
13.541576147079468,12
13.541576147079468,8
13.541576147079468,31
13.541576147079468,8
13.630321502685547,14
13.630321502685547,4
13.630321502685547,7
13.630321502685547,6
13.630321502685547,5
13.630321502685547,1
13.630321502685547,0
13.639909744262695,7
13.639909744262695,0
13.639909744262695,0
13.724477052688599,16
13.724477052688599,0
13.724477052688599,17
13.724477052688599,17
13.724477052688599,14
13.724477052688599,2
13.724477052688599,7
13.724477052688599,0
13.724477052688599,5
13.724477052688599,5
13.836868524551392,10
13.836868524551392,16
13.836868524551392,18
13.836868524551392,31
13.836868524551392,18
13.836868524551392,29
13.836868524551392,17
13.836868524551392,30
13.836868524551392,18
13.930596828460693,32
13.930596828460693,17
13.930596828460693,28
13.930596828460693,6
13.930596828460693,22
13.930596828460693,15
13.930596828460693,42
13.930596828460693,23
13.930596828460693,46
13.930596828460693,9
14.024953126907349,31
14.024953126907349,6
14.024953126907349,23
14.024953126907349,1
14.024953126907349,12
14.024953126907349,9
14.024953126907349,30
14.024953126907349,19
14.024953126907349,8
14.122339963912964,0
14.122339963912964,5
14.122339963912964,5
14.122339963912964,6
14.122339963912964,2
14.122339963912964,1
14.122339963912964,2
14.122339963912964,2
14.122339963912964,2
14.122339963912964,7
14.215883493423462,0
14.215883493423462,10
14.215883493423462,11
14.215883493423462,16
14.215883493423462,1
14.215883493423462,0
14.215883493423462,3
14.215883493423462,18
14.215883493423462,5
14.316355228424072,17
14.316355228424072,21
14.316355228424072,8
14.316355228424072,27
14.316355228424072,10
14.316355228424072,27
14.316355228424072,19
14.316355228424072,27
14.316355228424072,18
14.41481065750122,34
14.41481065750122,20
14.41481065750122,27
14.41481065750122,7
14.41481065750122,22
14.41481065750122,13
14.41481065750122,46
14.41481065750122,21
14.41481065750122,45
14.41481065750122,13
14.511267185211182,32
14.511267185211182,7
14.511267185211182,27
14.511267185211182,3
14.511267185211182,17
14.511267185211182,9
14.511267185211182,33
14.511267185211182,6
14.511267185211182,7
14.511267185211182,1
14.596696615219116,6
14.596696615219116,4
14.596696615219116,5
14.596696615219116,2
14.596696615219116,0
14.596696615219116,3
14.596696615219116,1
14.596696615219116,5
14.596696615219116,8
14.707237482070923,1
14.707237482070923,14
14.707237482070923,15
14.707237482070923,23
14.707237482070923,1
14.707237482070923,4
14.707237482070923,1
14.707237482070923,10
14.707237482070923,2
14.707237482070923,10
14.802603006362915,11
14.802603006362915,21
14.802603006362915,29
14.802603006362915,21
14.802603006362915,31
14.802603006362915,16
14.802603006362915,31
14.802603006362915,16
14.802603006362915,34
14.902231931686401,21
14.902231931686401,27
14.902231931686401,6
14.902231931686401,22
14.902231931686401,15
14.902231931686401,45
14.902231931686401,20
14.902231931686401,46
14.902231931686401,14
14.902231931686401,31
14.997609853744507,10
14.997609853744507,25
14.997609853744507,0
14.997609853744507,13
14.997609853744507,17
14.997609853744507,28
14.997609853744507,2
14.997609853744507,2
14.997609853744507,1
15.087435245513916,6
15.087435245513916,4
15.087435245513916,1
15.087435245513916,0
15.087435245513916,2
15.087435245513916,4
15.087435245513916,2
15.087435245513916,0
15.087435245513916,11
15.087435245513916,0
15.183677911758423,23
15.183677911758423,12
15.183677911758423,8
15.183677911758423,6
15.183677911758423,5
15.183677911758423,2
15.183677911758423,9
15.183677911758423,4
15.183677911758423,10
15.278248310089111,19
15.278248310089111,18
15.278248310089111,30
15.278248310089111,20
15.278248310089111,32
15.278248310089111,15
15.278248310089111,30
15.278248310089111,17
15.278248310089111,37
15.380223751068115,16
15.380223751068115,23
15.380223751068115,11
15.380223751068115,28
15.380223751068115,16
15.380223751068115,45
15.380223751068115,17
15.380223751068115,41
15.380223751068115,12
15.381729125976562,30
15.469265937805176,5
15.469265937805176,18
15.469265937805176,0
15.469265937805176,20
15.469265937805176,14
15.469265937805176,20
15.469265937805176,1
15.469265937805176,0
15.469265937805176,0
15.564980745315552,3
15.564980745315552,2
15.564980745315552,0
15.564980745315552,0
15.564980745315552,0
15.564980745315552,2
15.564980745315552,2
15.564980745315552,0
15.564980745315552,10
15.564980745315552,6
15.660820245742798,26
15.660820245742798,6
15.660820245742798,9
15.660820245742798,4
15.660820245742798,10
15.660820245742798,0
15.660820245742798,12
15.660820245742798,3
15.660820245742798,13
15.755236625671387,25
15.755236625671387,22
15.755236625671387,31
15.755236625671387,18
15.755236625671387,31
15.755236625671387,18
15.755236625671387,33
15.755236625671387,18
15.755236625671387,37
15.755236625671387,15
15.865415334701538,19
15.865415334701538,9
15.865415334701538,29
15.865415334701538,14
15.865415334701538,46
15.865415334701538,14
15.865415334701538,41
15.865415334701538,14
15.865415334701538,28
15.865415334701538,6
15.961265802383423,15
15.961265802383423,0
15.961265802383423,24
15.961265802383423,17
15.961265802383423,17
15.961265802383423,0
15.961265802383423,5
15.961265802383423,4
15.961265802383423,6
16.060943126678467,4
16.060943126678467,0
16.060943126678467,0
16.060943126678467,1
16.060943126678467,1
16.060943126678467,5
16.060943126678467,0
16.060943126678467,11
16.060943126678467,10
16.06294822692871,25
16.15223503112793,0
16.15223503112793,7
16.15223503112793,5
16.15223503112793,11
16.15223503112793,0
16.15223503112793,11
16.15223503112793,10
16.15223503112793,20
16.15223503112793,28
16.15223503112793,22
16.262539625167847,30
16.262539625167847,24
16.262539625167847,31
16.262539625167847,22
16.262539625167847,33
16.262539625167847,21
16.262539625167847,29
16.262539625167847,9
16.262539625167847,21
16.361892223358154,13
16.361892223358154,36
16.361892223358154,19
16.361892223358154,46
16.361892223358154,15
16.361892223358154,34
16.361892223358154,8
16.361892223358154,27
16.361892223358154,1
16.361892223358154,18
16.452574968338013,5
16.452574968338013,32
16.452574968338013,12
16.452574968338013,10
16.452574968338013,7
16.452574968338013,3
16.452574968338013,4
16.452574968338013,4
16.452574968338013,1
16.452574968338013,0
16.558117151260376,0
16.558117151260376,0
16.558117151260376,1
16.558117151260376,8
16.558117151260376,0
16.558117151260376,15
16.558117151260376,18
16.558117151260376,13
16.558117151260376,4
16.647414445877075,2
16.647414445877075,1
16.647414445877075,15
16.647414445877075,12
16.647414445877075,11
16.647414445877075,15
16.647414445877075,19
16.647414445877075,28
16.647414445877075,20
16.647414445877075,26
16.756165266036987,14
16.756165266036987,29
16.756165266036987,13
16.756165266036987,8
16.756165266036987,24
16.756165266036987,32
16.756165266036987,13
16.756165266036987,24
16.756165266036987,12
16.756165266036987,43
16.855602264404297,8
16.855602264404297,44
16.855602264404297,12
16.855602264404297,36
16.855602264404297,0
16.855602264404297,28
16.855602264404297,8
16.855602264404297,5
16.855602264404297,1
16.857606410980225,18
16.948330402374268,6
16.948330402374268,2
16.948330402374268,0
16.948330402374268,1
16.948330402374268,4
16.948330402374268,6
16.948330402374268,5
16.948330402374268,0
16.948330402374268,7
17.05631947517395,0
17.05631947517395,21
17.05631947517395,0
17.05631947517395,2
17.05631947517395,66
17.05631947517395,9
17.05631947517395,0
17.05631947517395,8
17.057324171066284,4
17.057324171066284,0
17.152446031570435,0
17.152446031570435,2
17.152446031570435,29
17.152446031570435,16
17.152446031570435,15
17.152446031570435,27
17.152446031570435,10
17.152446031570435,8
17.152446031570435,0
17.152446031570435,170
17.24850106239319,197
17.24850106239319,16
17.24850106239319,0
17.24850106239319,198
17.24850106239319,41
17.24850106239319,117
17.24850106239319,7
17.24850106239319,79
17.24850106239319,23
17.352661609649658,95
17.352661609649658,79
17.352661609649658,12
17.352661609649658,52
17.352661609649658,43
17.352661609649658,8
17.352661609649658,189
17.352661609649658,64
17.352661609649658,13
17.352661609649658,57
17.450276851654053,115
17.450276851654053,46
17.450276851654053,192
17.450276851654053,286
17.450276851654053,353
17.450276851654053,227
17.450276851654053,220
17.450276851654053,409
17.450276851654053,21
17.450276851654053,276
17.550546884536743,282
17.550546884536743,248
17.550546884536743,41
17.550546884536743,21
17.550546884536743,9
17.550546884536743,301
17.550546884536743,248
17.550546884536743,82
17.550546884536743,380
17.64880132675171,281
17.64880132675171,489
17.64880132675171,367
17.64880132675171,317
17.64880132675171,530
17.64880132675171,250
17.650806427001953,428
17.650806427001953,165
17.650806427001953,591
17.650806427001953,53
17.7490656375885,101
17.7490656375885,60
17.7490656375885,613
17.7490656375885,608
17.7490656375885,13
17.7490656375885,179
17.7490656375885,376
17.7490656375885,2
17.7490656375885,71
17.7490656375885,467
17.851016759872437,52
17.851016759872437,415
17.851016759872437,291
17.851016759872437,639
17.851016759872437,656
17.851016759872437,259
17.851016759872437,467
17.851016759872437,623
17.851016759872437,654
17.851016759872437,9
17.94933247566223,428
17.94933247566223,606
17.94933247566223,485
17.94933247566223,1023
17.94933247566223,547
17.94933247566223,188
17.94933247566223,185
17.94933247566223,170
17.94933247566223,265
17.94933247566223,74
18.061257362365723,25
18.061257362365723,71
18.061257362365723,494
18.061257362365723,936
18.061257362365723,660
18.061257362365723,675
18.061257362365723,137
18.061257362365723,569
18.061257362365723,124
18.061257362365723,902
18.167015314102173,39
18.167015314102173,789
18.167015314102173,79
18.167015314102173,134
18.167015314102173,169
18.167015314102173,297
18.167015314102173,23
18.167015314102173,171
18.167015314102173,25
18.167015314102173,329
18.167015314102173,1023
18.271828651428223,98
18.271828651428223,459
18.271828651428223,270
18.271828651428223,335
18.271828651428223,624
18.271828651428223,83
18.271828651428223,123
18.271828651428223,282
18.271828651428223,210
18.271828651428223,24
18.367305278778076,301
18.367305278778076,471
18.367305278778076,766
18.367305278778076,165
18.369309902191162,413
18.369309902191162,314
18.369309902191162,395
18.369309902191162,652
18.369309902191162,441
18.462427854537964,368
18.462427854537964,99
18.462427854537964,794
18.462427854537964,112
18.462427854537964,31
18.462427854537964,39
18.464432954788208,36
18.464432954788208,66
18.464432954788208,112
18.555175065994263,324
18.555175065994263,366
18.555175065994263,191
18.555175065994263,617
18.555175065994263,21
18.555175065994263,288
18.555175065994263,335
18.555175065994263,252
18.555175065994263,157
18.555175065994263,203
18.64963698387146,250
18.64963698387146,376
18.64963698387146,72
18.64963698387146,849
18.64963698387146,29
18.64963698387146,51
18.64963698387146,16
18.64963698387146,214
18.64963698387146,53
18.750014305114746,477
18.750014305114746,121
18.750014305114746,1023
18.750014305114746,298
18.750014305114746,407
18.750014305114746,141
18.750014305114746,414
18.750014305114746,29
18.750014305114746,311
18.750014305114746,390
18.850165128707886,79
18.850165128707886,376
18.850165128707886,697
18.850165128707886,49
18.850165128707886,142
18.850165128707886,45
18.850165128707886,480
18.850165128707886,27
18.850165128707886,1023
18.950266361236572,135
18.950266361236572,177
18.950266361236572,181
18.950266361236572,1021
18.950266361236572,16
18.950266361236572,630
18.950266361236572,1020
18.95278286933899,113
18.95278286933899,278
18.95278286933899,217
19.053600311279297,140
19.053600311279297,309
19.053600311279297,11
19.053600311279297,505
19.055607080459595,112
19.055607080459595,193
19.055607080459595,44
19.055607080459595,139
19.055607080459595,260
19.055607080459595,164
19.15375566482544,67
19.15576148033142,707
19.15576148033142,41
19.15576148033142,252
19.15576148033142,378
19.15576148033142,0
19.15576148033142,415
19.15576148033142,171
19.15576148033142,203
19.15576148033142,443
19.25306248664856,74
19.25306248664856,190
19.25306248664856,245
19.25306248664856,159
19.25306248664856,116
19.25306248664856,417
19.25306248664856,9
19.25306248664856,588
19.25306248664856,143
19.25306248664856,68
19.35118818283081,1023
19.35118818283081,8
19.35118818283081,123
19.35118818283081,233
19.35118818283081,350
19.35118818283081,35
19.35118818283081,764
19.35118818283081,101
19.35118818283081,15
19.448410987854004,501
19.448410987854004,322
19.448410987854004,242
19.448410987854004,46
19.448410987854004,491
19.448410987854004,126
19.448410987854004,80
19.448410987854004,327
19.448410987854004,143
19.448410987854004,73
19.550119638442993,66
19.550119638442993,59
19.550119638442993,272
19.550119638442993,228
19.550119638442993,284
19.550119638442993,593
19.550119638442993,207
19.550119638442993,104
19.550119638442993,109
19.550119638442993,48
19.646267890930176,75
19.646267890930176,42
19.646267890930176,29
19.646267890930176,103
19.646267890930176,25
19.646267890930176,554
19.646267890930176,154
19.646267890930176,161
19.646267890930176,121
19.74238133430481,303
19.74238133430481,119
19.74238133430481,162
19.74238133430481,40
19.74238133430481,1023
19.74238133430481,420
19.74238133430481,266
19.74238133430481,137
19.74238133430481,461
19.74238133430481,37
19.838696718215942,754
19.838696718215942,62
19.838696718215942,6
19.838696718215942,300
19.838696718215942,75
19.838696718215942,28
19.838696718215942,201
19.838696718215942,326
19.838696718215942,255
19.94995927810669,254
19.94995927810669,286
19.94995927810669,97
19.94995927810669,142
19.94995927810669,138
19.94995927810669,317
19.94995927810669,51
19.94995927810669,525
19.94995927810669,182
19.94995927810669,407
19.94995927810669,296
20.05236840248108,5
20.05236840248108,205
20.05236840248108,16
20.05236840248108,122
20.05236840248108,7
20.05236840248108,118
20.05236840248108,39
20.05236840248108,214
20.05236840248108,507
20.05236840248108,198
20.154968738555908,126
20.154968738555908,52
20.154968738555908,92
20.154968738555908,35
20.154968738555908,147
20.154968738555908,60
20.154968738555908,25
20.154968738555908,363
20.154968738555908,131
20.154968738555908,107
20.256725072860718,218
20.256725072860718,58
20.256725072860718,186
20.256725072860718,12
20.256725072860718,5
20.256725072860718,18
20.256725072860718,86
20.256725072860718,50
20.256725072860718,82
20.256725072860718,38
20.352689504623413,149
20.352689504623413,35
20.352689504623413,10
20.352689504623413,24
20.352689504623413,32
20.352689504623413,16
20.352689504623413,137
20.352689504623413,233
20.352689504623413,370
20.45158314704895,87
20.45158314704895,99
20.45158314704895,9
20.45158314704895,42
20.45158314704895,1
20.45158314704895,42
20.45158314704895,36
20.45258903503418,333
20.45258903503418,276
20.45258903503418,226
20.548760414123535,242
20.550780057907104,56
20.550780057907104,16
20.550780057907104,16
20.550780057907104,12
20.550780057907104,10
20.550780057907104,6
20.550780057907104,16
20.550780057907104,95
20.645896673202515,234
20.645896673202515,107
20.645896673202515,262
20.645896673202515,44
20.647902250289917,66
20.647902250289917,52
20.647902250289917,108
20.647902250289917,3
20.647902250289917,2
20.647902250289917,2
20.7441828250885,172
20.7441828250885,306
20.7441828250885,53
20.7441828250885,59
20.7441828250885,3
20.7441828250885,25
20.7441828250885,7
20.7441828250885,22
20.7441828250885,0
20.849993228912354,0
20.849993228912354,174
20.849993228912354,78
20.849993228912354,0
20.849993228912354,204
20.849993228912354,100
20.849993228912354,150
20.849993228912354,21
20.849993228912354,79
20.849993228912354,56
20.849993228912354,38
20.953680753707886,0
20.953680753707886,16
20.953680753707886,1
20.953680753707886,11
20.953680753707886,40
20.953680753707886,251
20.953680753707886,105
20.953680753707886,46
20.953680753707886,3
20.953680753707886,17
21.05977153778076,11
21.05977153778076,88
21.05977153778076,15
21.05977153778076,1
21.05977153778076,162
21.061776876449585,23
21.061776876449585,53
21.061776876449585,33
21.061776876449585,8
21.061776876449585,29
21.165797472000122,117
21.165797472000122,191
21.165797472000122,37
21.165797472000122,4
21.165797472000122,1
21.165797472000122,1
21.165797472000122,94
21.165797472000122,140
21.165797472000122,31
21.165797472000122,91
21.165797472000122,44
21.253931522369385,0
21.253931522369385,74
21.253931522369385,19
21.253931522369385,35
21.268752336502075,12
21.268752336502075,3
21.268752336502075,38
21.268752336502075,4
21.268752336502075,7
21.268752336502075,42
21.362262725830078,18
21.362262725830078,49
21.362262725830078,29
21.362262725830078,0
21.362262725830078,0
21.362262725830078,38
21.362262725830078,39
21.362262725830078,93
21.362262725830078,30
21.459827423095703,28
21.459827423095703,29
21.459827423095703,25
21.459827423095703,8
21.459827423095703,3
21.459827423095703,15
21.459827423095703,1
21.459827423095703,6
21.459827423095703,15
21.5501925945282,8
21.55472183227539,1
21.55472183227539,11
21.55472183227539,9
21.55472183227539,69
21.55472183227539,8
21.55472183227539,0
21.55472183227539,0
21.55472183227539,0
21.55472183227539,2
21.646193981170654,101
21.646193981170654,28
21.646193981170654,4
21.646193981170654,54
21.646193981170654,32
21.646193981170654,8
21.646193981170654,24
21.646193981170654,12
21.646193981170654,36
21.74140977859497,7
21.74140977859497,9
21.74140977859497,4
21.74140977859497,22
21.74140977859497,3
21.74140977859497,71
21.74140977859497,105
21.74140977859497,17
21.74140977859497,8
21.84006977081299,32
21.84006977081299,7
21.84006977081299,89
21.84006977081299,0
21.84006977081299,5
21.84006977081299,0
21.84006977081299,18
21.84006977081299,18
21.84006977081299,64
21.84006977081299,108
21.921419143676758,40
21.921419143676758,35
21.921419143676758,14
21.921419143676758,0
21.921419143676758,2
21.921419143676758,13
21.921419143676758,0
21.921419143676758,8
21.921419143676758,1
22.016841173171997,3
22.016841173171997,9
22.016841173171997,15
22.016841173171997,11
22.016841173171997,18
22.016841173171997,0
22.016841173171997,7
22.016841173171997,0
22.016841173171997,18
22.128780841827393,40
22.128780841827393,52
22.128780841827393,2
22.128780841827393,30
22.128780841827393,10
22.128780841827393,71
22.128780841827393,22
22.128780841827393,51
22.128780841827393,8
22.128780841827393,23
22.22428250312805,12
22.22428250312805,30
22.22428250312805,5
22.22428250312805,18
22.22428250312805,9
22.22428250312805,35
22.22428250312805,5
22.22428250312805,60
22.22428250312805,34
22.22428250312805,43
22.31913447380066,4
22.31913447380066,31
22.31913447380066,4
22.31913447380066,18
22.31913447380066,1
22.31913447380066,34
22.31913447380066,22
22.31913447380066,15
22.31913447380066,0
22.31913447380066,10
22.430751085281372,6
22.430751085281372,9
22.430751085281372,3
22.430751085281372,0
22.430751085281372,2
22.430751085281372,0
22.430751085281372,6
22.430751085281372,1
22.430751085281372,1
22.430751085281372,6
22.53201913833618,15
22.53201913833618,16
22.53201913833618,3
22.53201913833618,1
22.53201913833618,8
22.53201913833618,2
22.53201913833618,0
22.53201913833618,23
22.53201913833618,3
22.53201913833618,9
22.632012128829956,14
22.632012128829956,11
22.632012128829956,21
22.632012128829956,10
22.632012128829956,29
22.632012128829956,14
22.632012128829956,25
22.632012128829956,17
22.632012128829956,36
22.73131251335144,18
22.73131251335144,18
22.73131251335144,6
22.73131251335144,31
22.73131251335144,16
22.73131251335144,46
22.73131251335144,7
22.73131251335144,31
22.73131251335144,4
22.73131251335144,31
22.73131251335144,12
22.83088445663452,18
22.83088445663452,1
22.83088445663452,29
22.83088445663452,12
22.83088445663452,7
22.83088445663452,3
22.83088445663452,5
22.83088445663452,1
22.83088445663452,12
22.922924757003784,9
22.922924757003784,0
22.922924757003784,5
22.922924757003784,0
22.922924757003784,6
22.922924757003784,1
22.922924757003784,3
22.922924757003784,5
22.922924757003784,11
22.922924757003784,17
23.02749490737915,0
23.02749490737915,0
23.02749490737915,23
23.02749490737915,1
23.02749490737915,0
23.02749490737915,5
23.02749490737915,4
23.02749490737915,5
23.02749490737915,10
23.02749490737915,4
23.130706548690796,8
23.130706548690796,13
23.130706548690796,23
23.130706548690796,13
23.130706548690796,23
23.130706548690796,2
23.130706548690796,44
23.130706548690796,10
23.130706548690796,1
23.225468635559082,1
23.225468635559082,9
23.225468635559082,2
23.225468635559082,31
23.225468635559082,11
23.225468635559082,22
23.225468635559082,0
23.225468635559082,10
23.225468635559082,0
23.225468635559082,10
23.320799827575684,0
23.320799827575684,1
23.320799827575684,0
23.320799827575684,15
23.320799827575684,7
23.320799827575684,4
23.320799827575684,0
23.320799827575684,0
23.320799827575684,0
23.42261290550232,2
23.42261290550232,0
23.42261290550232,0
23.42261290550232,1
23.42261290550232,1
23.42261290550232,0
23.42261290550232,0
23.42261290550232,0
23.42261290550232,2
23.42261290550232,5
23.512412071228027,13
23.512412071228027,2
23.512412071228027,0
23.512412071228027,5
23.512412071228027,0
23.512412071228027,0
23.512412071228027,1
23.512412071228027,0
23.512412071228027,3
23.608561754226685,16
23.608561754226685,4
23.608561754226685,13
23.608561754226685,2
23.608561754226685,5
23.608561754226685,4
23.608561754226685,15
23.608561754226685,0
23.608561754226685,11
23.608561754226685,1
23.704809427261353,27
23.704809427261353,1
23.704809427261353,8
23.704809427261353,0
23.704809427261353,10
23.704809427261353,2
23.704809427261353,31
23.704809427261353,0
23.704809427261353,18
23.80214786529541,12
23.80214786529541,7
23.80214786529541,0
23.80214786529541,9
23.80214786529541,2
23.80214786529541,0
23.80214786529541,6
23.80214786529541,17
23.80214786529541,1
23.893023014068604,3
23.893023014068604,0
23.893023014068604,0
23.893023014068604,0
23.893023014068604,2
23.893023014068604,6
23.893023014068604,5
23.893023014068604,0
23.893023014068604,3
23.893023014068604,0
23.991509675979614,0
23.991509675979614,0
23.991509675979614,2
23.991509675979614,6
23.991509675979614,8
23.991509675979614,1
23.991509675979614,0
23.991509675979614,0
23.991509675979614,4
24.082614183425903,9
24.082614183425903,1
24.082614183425903,10
24.082614183425903,1
24.082614183425903,0
24.082614183425903,3
24.082614183425903,19
24.082614183425903,7
24.082614183425903,11
24.178012371063232,4
24.178012371063232,9
24.178012371063232,6
24.178012371063232,16
24.178012371063232,22
24.178012371063232,24
24.178012371063232,6
24.178012371063232,0
24.178012371063232,5
24.178012371063232,26
24.288870811462402,11
24.288870811462402,38
24.288870811462402,9
24.288870811462402,35
24.288870811462402,7
24.288870811462402,35
24.288870811462402,7
24.288870811462402,2
24.288870811462402,6
24.288870811462402,19
24.38484001159668,23
24.38484001159668,57
24.38484001159668,28
24.38484001159668,34
24.38484001159668,0
24.38484001159668,0
24.38484001159668,7
24.38484001159668,16
24.38484001159668,26
24.38484001159668,0
24.490166902542114,14
24.490166902542114,26
24.490166902542114,13
24.490166902542114,4
24.490166902542114,28
24.490166902542114,0
24.490166902542114,5
24.490166902542114,0
24.490166902542114,0
24.490166902542114,0
24.591217756271362,0
24.591217756271362,18
24.591217756271362,22
24.591217756271362,42
24.591217756271362,24
24.591217756271362,3
24.591217756271362,20
24.591217756271362,17
24.591217756271362,33
24.591217756271362,25
24.685715198516846,6
24.685715198516846,54
24.685715198516846,109
24.685715198516846,6
24.685715198516846,21
24.685715198516846,1
24.685715198516846,56
24.685715198516846,87
24.685715198516846,10
24.794349431991577,18
24.794349431991577,51
24.794349431991577,5
24.794349431991577,33
24.794349431991577,12
24.79585552215576,27
24.79585552215576,7
24.79585552215576,37
24.79585552215576,20
24.79585552215576,46
24.79585552215576,15
24.89545965194702,22
24.89545965194702,19
24.89545965194702,11
24.89545965194702,3
24.89545965194702,52
24.89545965194702,92
24.89545965194702,56
24.89545965194702,2
24.89545965194702,27
24.89545965194702,14
24.999016284942627,0
24.999016284942627,5
24.999016284942627,11
24.999016284942627,2
24.999016284942627,12
24.999016284942627,2
24.999016284942627,12
24.999016284942627,13
24.999016284942627,1
24.999016284942627,20
25.098243713378906,13
25.098243713378906,37
25.098243713378906,6
25.098243713378906,0
25.098243713378906,2
25.098243713378906,33
25.098243713378906,14
25.098243713378906,28
25.098243713378906,10
25.098243713378906,5
25.195372104644775,10
25.195372104644775,53
25.195372104644775,29
25.195372104644775,36
25.195372104644775,4
25.195372104644775,22
25.195372104644775,47
25.195372104644775,41
25.195372104644775,26
25.195372104644775,16
25.304712057113647,2
25.304712057113647,40
25.304712057113647,8
25.304712057113647,18
25.304712057113647,0
25.304712057113647,1
25.304712057113647,6
25.304712057113647,16
25.304712057113647,4
25.304712057113647,3
25.40178346633911,4
25.40178346633911,1
25.40178346633911,6
25.40178346633911,0
25.40178346633911,0
25.40178346633911,0
25.40178346633911,15
25.40178346633911,9
25.40178346633911,6
25.49539542198181,1
25.49539542198181,9
25.49539542198181,0
25.49539542198181,0
25.49539542198181,0
25.49539542198181,1
25.49539542198181,1
25.49539542198181,9
25.49539542198181,5
25.49539542198181,12
25.597164392471313,3
25.597164392471313,21
25.597164392471313,4
25.597164392471313,21
25.597164392471313,6
25.597164392471313,27
25.597164392471313,9
25.597164392471313,22
25.597164392471313,0
25.696666479110718,13
25.696666479110718,5
25.696666479110718,21
25.696666479110718,26
25.696666479110718,34
25.696666479110718,5
25.696666479110718,35
25.696666479110718,5
25.696666479110718,32
25.696666479110718,3
25.796218156814575,23
25.796218156814575,2
25.796218156814575,32
25.796218156814575,12
25.796218156814575,18
25.796218156814575,0
25.796218156814575,12
25.796218156814575,10
25.796218156814575,11
25.796218156814575,4
25.892824411392212,3
25.892824411392212,7
25.892824411392212,2
25.892824411392212,1
25.892824411392212,0
25.892824411392212,5
25.892824411392212,5
25.892824411392212,13
25.892824411392212,0
25.988660097122192,13
25.988660097122192,5
25.988660097122192,3
25.988660097122192,0
25.988660097122192,0
25.988660097122192,1
25.988660097122192,8
25.988660097122192,0
25.988660097122192,23
25.988660097122192,7
26.082637786865234,10
26.082637786865234,6
26.082637786865234,18
26.082637786865234,12
26.082637786865234,19
26.082637786865234,16
26.082637786865234,15
26.082637786865234,0
26.082637786865234,13
26.17731523513794,3
26.17731523513794,33
26.17731523513794,15
26.17731523513794,42
26.17731523513794,10
26.17731523513794,27
26.17731523513794,8
26.17731523513794,47
26.17731523513794,9
26.17731523513794,19
26.27706480026245,0
26.27706480026245,29
26.27706480026245,15
26.27706480026245,31
26.27706480026245,0
26.27706480026245,6
26.27706480026245,3
26.27706480026245,19
26.27706480026245,1
26.368147611618042,9
26.368147611618042,0
26.368147611618042,7
26.368147611618042,10
26.368147611618042,1
26.368147611618042,4
26.368147611618042,25
26.368147611618042,6
26.368147611618042,6
26.46618413925171,2
26.46618413925171,0
26.46618413925171,17
26.46618413925171,0
26.46618413925171,2
26.46618413925171,0
26.46618413925171,17
26.46618413925171,0
26.46618413925171,10
26.46618413925171,12
26.557689905166626,42
26.557689905166626,53
26.557689905166626,27
26.557689905166626,4
26.557689905166626,21
26.557689905166626,9
26.557689905166626,35
26.557689905166626,20
26.557689905166626,12
26.65074920654297,0
26.65074920654297,20
26.65074920654297,27
26.65074920654297,40
26.65074920654297,10
26.65074920654297,34
26.65074920654297,3
26.65074920654297,16
26.65074920654297,0
26.74489426612854,40
26.74489426612854,14
26.74489426612854,41
26.74489426612854,16
26.74489426612854,15
26.74489426612854,15
26.74489426612854,25
26.74489426612854,7
26.74489426612854,21
26.83985710144043,0
26.83985710144043,36
26.83985710144043,43
26.83985710144043,166
26.83985710144043,0
26.83985710144043,25
26.83985710144043,5
26.83985710144043,8
26.83985710144043,205
26.9339599609375,249
26.9339599609375,42
26.9339599609375,6
26.9339599609375,170
26.9339599609375,225
26.9339599609375,137
26.935729265213013,32
26.935729265213013,49
26.935729265213013,29
27.028079509735107,206
27.028079509735107,294
27.028079509735107,349
27.028079509735107,262
27.028079509735107,52
27.028079509735107,75
27.028079509735107,145
27.028079509735107,188
27.028079509735107,244
27.028079509735107,247
27.121949195861816,462
27.121949195861816,87
27.121949195861816,216
27.121949195861816,699
27.121949195861816,490
27.121949195861816,373
27.121949195861816,465
27.121949195861816,241
27.121949195861816,207
27.223668098449707,89
27.223668098449707,394
27.223668098449707,1
27.223668098449707,515
27.223668098449707,899
27.223668098449707,93
27.223668098449707,97
27.223668098449707,900
27.223668098449707,439
27.223668098449707,495
27.32622003555298,146
27.32622003555298,220
27.32622003555298,870
27.32622003555298,621
27.32622003555298,365
27.32622003555298,572
27.32622003555298,1023
27.32622003555298,565
27.32622003555298,831
27.32622003555298,609
27.414995193481445,122
27.414995193481445,19
27.414995193481445,81
27.414995193481445,286
27.414995193481445,435
27.414995193481445,400
27.414995193481445,361
27.414995193481445,799
27.414995193481445,71
27.51037573814392,932
27.51037573814392,167
27.526490926742554,144
27.526490926742554,653
27.526490926742554,55
27.526490926742554,30
27.526490926742554,173
27.526490926742554,181
27.526490926742554,450
27.526490926742554,119
27.62316656112671,231
27.62316656112671,506
27.62316656112671,544
27.62316656112671,179
27.62316656112671,184
27.62316656112671,719
27.62316656112671,388
27.625171661376953,143
27.625171661376953,97
27.625171661376953,274
27.728573322296143,325
27.728573322296143,468
27.728573322296143,558
27.728573322296143,425
27.728573322296143,118
27.728573322296143,450
27.728573322296143,295
27.728573322296143,115
27.728573322296143,96
27.728573322296143,417
27.827805995941162,185
27.827805995941162,370
27.827805995941162,1023
27.827805995941162,189
27.827805995941162,666
27.827805995941162,287
27.827805995941162,357
27.827805995941162,530
27.827805995941162,735
27.827805995941162,591
27.9285249710083,130
27.9285249710083,103
27.9285249710083,41
27.9285249710083,301
27.9285249710083,191
27.9285249710083,196
27.9285249710083,684
27.9285249710083,120
27.9285249710083,48
28.017584323883057,445
28.017584323883057,176
28.017584323883057,483
28.017584323883057,917
28.017584323883057,244
28.017584323883057,100
28.017584323883057,117
28.017584323883057,767
28.017584323883057,342
28.017584323883057,103
28.12438464164734,279
28.12438464164734,51
28.12438464164734,29
28.12438464164734,157
28.12438464164734,705
28.12438464164734,173
28.12438464164734,270
28.12438464164734,325
28.12438464164734,607
28.12438464164734,12
28.225801944732666,510
28.225801944732666,87
28.225801944732666,333
28.22780704498291,10
28.22780704498291,443
28.22780704498291,322
28.22780704498291,495
28.22780704498291,254
28.22780704498291,833
28.22780704498291,54
28.327234983444214,168
28.327234983444214,72
28.327234983444214,869
28.327234983444214,848
28.327234983444214,59
28.327234983444214,184
28.327234983444214,307
28.327234983444214,114
28.327234983444214,1023
28.42837643623352,188
28.42837643623352,254
28.43012309074402,484
28.43012309074402,350
28.43012309074402,537
28.43012309074402,460
28.43012309074402,0
28.43012309074402,640
28.43068027496338,33
28.43068027496338,329
28.52552628517151,61
28.52552628517151,693
28.52552628517151,154
28.52552628517151,180
28.52552628517151,525
28.52552628517151,312
28.52552628517151,403
28.52552628517151,348
28.52552628517151,525
28.52552628517151,205
28.621052980422974,152
28.621052980422974,34
28.621052980422974,355
28.621052980422974,93
28.621052980422974,543
28.621052980422974,300
28.621052980422974,5
28.621052980422974,257
28.621052980422974,125
28.621052980422974,25
28.72583246231079,321
28.72583246231079,599
28.72583246231079,555
28.72583246231079,4
28.72583246231079,286
28.72583246231079,184
28.72583246231079,758
28.72583246231079,23
28.72583246231079,149
28.72583246231079,454
28.827860832214355,87
28.827860832214355,489
28.827860832214355,23
28.827860832214355,194
28.827860832214355,165
28.827860832214355,215
28.827860832214355,3
28.827860832214355,278
28.827860832214355,198
28.922845602035522,136
28.922845602035522,21
28.922845602035522,505
28.922845602035522,3
28.922845602035522,109
28.922845602035522,814
28.922845602035522,209
28.922845602035522,140
28.922845602035522,455
28.922845602035522,905
29.02728819847107,633
29.02728819847107,144
29.02728819847107,34
29.02728819847107,67
29.02728819847107,84
29.02728819847107,72
29.029293537139893,230
29.029293537139893,628
29.029293537139893,113
29.029293537139893,26
29.125919342041016,357
29.125919342041016,152
29.125919342041016,24
29.125919342041016,347
29.125919342041016,621
29.125919342041016,347
29.125919342041016,3
29.125919342041016,241
29.125919342041016,92
29.227328062057495,1023
29.227328062057495,233
29.227328062057495,140
29.227328062057495,8
29.227328062057495,515
29.227328062057495,332
29.22933340072632,381
29.22933340072632,22
29.22933340072632,520
29.22933340072632,299
29.316561937332153,46
29.316561937332153,733
29.316561937332153,174
29.316561937332153,70
29.316561937332153,51
29.316561937332153,116
29.316561937332153,91
29.316561937332153,90
29.316561937332153,35
29.316561937332153,793
29.42793083190918,48
29.42793083190918,199
29.42793083190918,27
29.42793083190918,66
29.42793083190918,82
29.42793083190918,14
29.42793083190918,6
29.42793083190918,133
29.42793083190918,72
29.42793083190918,1023
29.52923560142517,263
29.52923560142517,109
29.52923560142517,90
29.52923560142517,125
29.52923560142517,77
29.52923560142517,136
29.52923560142517,24
29.52923560142517,2
29.52923560142517,11
29.52923560142517,320
29.62898325920105,280
29.62898325920105,141
29.62898325920105,88
29.62898325920105,9
29.62898325920105,4
29.62898325920105,2
29.62898325920105,2
29.62898325920105,1
29.62898325920105,491
29.62898325920105,17
29.726203680038452,151
29.726203680038452,234
29.726203680038452,30
29.726203680038452,2
29.726203680038452,8
29.728208780288696,30
29.728208780288696,7
29.728208780288696,50
29.728208780288696,410
29.826322555541992,479
29.826322555541992,110
29.826322555541992,140
29.826322555541992,28
29.826322555541992,37
29.826322555541992,24
29.826322555541992,45
29.826322555541992,7
29.826322555541992,29
29.826322555541992,1
29.923451900482178,9
29.923451900482178,109
29.923451900482178,248
29.923451900482178,21
29.923451900482178,16
29.923451900482178,1
29.923451900482178,23
29.923451900482178,21
29.925456762313843,20
29.925456762313843,6
30.020647048950195,3
30.020647048950195,3
30.020647048950195,4
30.020647048950195,3
30.020647048950195,4
30.020647048950195,31
30.022653579711914,1
30.022653579711914,0
30.022653579711914,8
30.117931365966797,35
30.117931365966797,2
30.117931365966797,6
30.117931365966797,0
30.117931365966797,4
30.117931365966797,0
30.117931365966797,15
30.117931365966797,5
30.117931365966797,7
30.117931365966797,4
30.2048122882843,15
30.2048122882843,19
30.2048122882843,9
30.2048122882843,12
30.2048122882843,8
30.2048122882843,7
30.2048122882843,26
30.2048122882843,2
30.2048122882843,26
30.314032077789307,9
30.314032077789307,38
30.314032077789307,0
30.314032077789307,38
30.314032077789307,12
30.314032077789307,42
30.314032077789307,10
30.314032077789307,27
30.314032077789307,6
30.314032077789307,31
30.41062641143799,0
30.41062641143799,42
30.41062641143799,20
30.41062641143799,20
30.41062641143799,1
30.41062641143799,9
30.41062641143799,4
30.41062641143799,19
30.41062641143799,4
30.51040291786194,6
30.51040291786194,0
30.51040291786194,2
30.51040291786194,9
30.51040291786194,3
30.51040291786194,7
30.51143527030945,10
30.51143527030945,2
30.51143527030945,8
30.51143527030945,6
30.60921335220337,2
30.60921335220337,11
30.60921335220337,1
30.60921335220337,5
30.60921335220337,1
30.60921335220337,2
30.60921335220337,3
30.60921335220337,1
30.60921335220337,6
30.60921335220337,13
30.712063312530518,7
30.712063312530518,15
30.712063312530518,5
30.712063312530518,6
30.712063312530518,10
30.712063312530518,18
30.712063312530518,2
30.712063312530518,37
30.712063312530518,25
30.712063312530518,9
30.811177253723145,12
30.811177253723145,26
30.811177253723145,22
30.811177253723145,40
30.811177253723145,8
30.811177253723145,15
30.811177253723145,0
30.811177253723145,17
30.811177253723145,14
30.9128999710083,16
30.9128999710083,8
30.9128999710083,34
30.9128999710083,17
30.9128999710083,13
30.9128999710083,4
30.9128999710083,20
30.9128999710083,6
30.9128999710083,9
30.9128999710083,13
30.9128999710083,1
31.013346672058105,14
31.013346672058105,0
31.013346672058105,11
31.013346672058105,0
31.013346672058105,6
31.013346672058105,9
31.013346672058105,5
31.013346672058105,0
31.013346672058105,14
31.11087417602539,0
31.11087417602539,6
31.11087417602539,3
31.11087417602539,1
31.11087417602539,3
31.11087417602539,5
31.11087417602539,16
31.11087417602539,13
31.11087417602539,1
31.11087417602539,19
31.20520305633545,16
31.20520305633545,12
31.20520305633545,2
31.20520305633545,18
31.20520305633545,16
31.20520305633545,21
31.20520305633545,5
31.20520305633545,11
31.20520305633545,6
31.20520305633545,26
31.304404973983765,3
31.304404973983765,36
31.304404973983765,9
31.304404973983765,32
31.304404973983765,6
31.304404973983765,29
31.304404973983765,22
31.304404973983765,16
31.304404973983765,1
31.398012399673462,32
31.398012399673462,22
31.398012399673462,26
31.398012399673462,0
31.398012399673462,9
31.398012399673462,6
31.398012399673462,14
31.398012399673462,7
31.398012399673462,4
31.489686727523804,11
31.489686727523804,0
31.491434574127197,12
31.491434574127197,0
31.491434574127197,4
31.491434574127197,2
31.491434574127197,0
31.491434574127197,2
31.491434574127197,5
31.57278609275818,0
31.57278609275818,13
31.57278609275818,1
31.57278609275818,8
31.57278609275818,0
31.57278609275818,0
31.57278609275818,0
31.57278609275818,8
31.57278609275818,13
31.673097848892212,11
31.673097848892212,7
31.673097848892212,16
31.673097848892212,8
31.673097848892212,15
31.68229079246521,11
31.68229079246521,22
31.68229079246521,18
31.68229079246521,16
31.68229079246521,2
31.77538275718689,14
31.77538275718689,10
31.77538275718689,39
31.77538275718689,17
31.77538275718689,34
31.77538275718689,9
31.77538275718689,27
31.77538275718689,7
31.776888608932495,28
31.873454332351685,4
31.873454332351685,12
31.873454332351685,7
31.873454332351685,34
31.873454332351685,12
31.873454332351685,9
31.873454332351685,1
31.873454332351685,9
31.873454332351685,13
31.873454332351685,13
31.967975854873657,0
31.967975854873657,0
31.967975854873657,9
31.967975854873657,0
31.967975854873657,3
31.967975854873657,0
31.967975854873657,6
31.967975854873657,14
31.967975854873657,5
32.06226921081543,1
32.06226921081543,11
32.06226921081543,0
32.06226921081543,3
32.06226921081543,1
32.06226921081543,1
32.06226921081543,0
32.06226921081543,3
32.06226921081543,6
32.06226921081543,13
32.16783905029297,10
32.16783905029297,12
32.16783905029297,8
32.16783905029297,19
32.16783905029297,11
32.16783905029297,17
32.16783905029297,16
32.16783905029297,22
32.16783905029297,2
32.16783905029297,11
32.26822352409363,9
32.26822352409363,28
32.26822352409363,13
32.26822352409363,40
32.26822352409363,12
32.26822352409363,32
32.26822352409363,7
32.26822352409363,21
32.26822352409363,7
32.26822352409363,17
32.36288547515869,1
32.36288547515869,31
32.373570919036865,19
32.373570919036865,13
32.373570919036865,0
32.373570919036865,11
32.373570919036865,6
32.373570919036865,12
32.373570919036865,5
32.373570919036865,0
32.47342896461487,7
32.47342896461487,0
32.47342896461487,8
32.47342896461487,0
32.47342896461487,3
32.47342896461487,5
32.47342896461487,7
32.47342896461487,11
32.47342896461487,5
32.47342896461487,0
32.57356286048889,10
32.57356286048889,2
32.57356286048889,3
32.57356286048889,3
32.57356286048889,0
32.57356286048889,5
32.57356286048889,11
32.57356286048889,12
32.57356286048889,18
32.57356286048889,11
32.67742371559143,20
32.67742371559143,10
32.67742371559143,21
32.67742371559143,10
32.67742371559143,30
32.67742371559143,8
32.67742371559143,13
32.67742371559143,4
32.67742371559143,29
32.67742371559143,14
32.77934169769287,42
32.77934169769287,13
32.77934169769287,31
32.77934169769287,7
32.77934169769287,30
32.77934169769287,8
32.77934169769287,30
32.77934169769287,8
32.77934169769287,4
32.77934169769287,13
32.88160705566406,28
32.88160705566406,5
32.88160705566406,20
32.88160705566406,25
32.88160705566406,14
32.88160705566406,10
32.88160705566406,4
32.88160705566406,4
32.88160705566406,1
32.88160705566406,21
32.98199963569641,0
32.98199963569641,4
32.98199963569641,4
32.98199963569641,7
32.98199963569641,16
32.98199963569641,6
32.98199963569641,0
32.98199963569641,10
32.98199963569641,15
32.98199963569641,0
33.08672761917114,1
33.08672761917114,3
33.08672761917114,9
33.08672761917114,19
33.08672761917114,9
33.08672761917114,14
33.08672761917114,8
33.08672761917114,31
33.08672761917114,11
33.08672761917114,14
33.18393325805664,7
33.18393325805664,29
33.18393325805664,11
33.18393325805664,13
33.18393325805664,7
33.18393325805664,21
33.18393325805664,14
33.18393325805664,45
33.18393325805664,15
33.274089336395264,33
33.274089336395264,8
33.274089336395264,29
33.274089336395264,8
33.274089336395264,26
33.274089336395264,3
33.274089336395264,16
33.274089336395264,13
33.274089336395264,25
33.274089336395264,4
33.37418222427368,3
33.37418222427368,3
33.37418222427368,13
33.37418222427368,11
33.37418222427368,1
33.37418222427368,5
33.37418222427368,1
33.37418222427368,8
33.37418222427368,0
33.467520236968994,8
33.467520236968994,3
33.467520236968994,1
33.467520236968994,7
33.467520236968994,0
33.467520236968994,3
33.467520236968994,13
33.467520236968994,0
33.467520236968994,4
33.551952600479126,3
33.551952600479126,1
33.551952600479126,1
33.551952600479126,8
33.551952600479126,5
33.551952600479126,16
33.551952600479126,0
33.551952600479126,13
33.551952600479126,10
33.64805221557617,20
33.64805221557617,14
33.64805221557617,21
33.64805221557617,17
33.64805221557617,25
33.64805221557617,6
33.64805221557617,17
33.664002895355225,6
33.664002895355225,18
33.664002895355225,8
33.76352000236511,44
33.76352000236511,12
33.76352000236511,41
33.76352000236511,8
33.76352000236511,30
33.765525579452515,11
33.765525579452515,18
33.765525579452515,16
33.765525579452515,34
33.765525579452515,15
33.86431956291199,12
33.86431956291199,0
33.86431956291199,14
33.86431956291199,5
33.86431956291199,11
33.86431956291199,4
33.86431956291199,1
33.86431956291199,5
33.86431956291199,6
33.86632585525513,9
33.96570587158203,0
33.96570587158203,0
33.96570587158203,3
33.96570587158203,11
33.96570587158203,4
33.96570587158203,6
33.96570587158203,0
33.96570587158203,8
33.96570587158203,4
33.96570587158203,0
34.061227321624756,0
34.061227321624756,2
34.061227321624756,15
34.061227321624756,19
34.061227321624756,10
34.061227321624756,19
34.061227321624756,12
34.061227321624756,22
34.061227321624756,20
34.061227321624756,20
34.157132148742676,21
34.157132148742676,23
34.157132148742676,11
34.157132148742676,10
34.157132148742676,7
34.157132148742676,39
34.157132148742676,9
34.157132148742676,44
34.157132148742676,14
34.25257992744446,32
34.25257992744446,9
34.25257992744446,27
34.25257992744446,0
34.25257992744446,4
34.25257992744446,0
34.25257992744446,18
34.25257992744446,18
34.25257992744446,23
34.25257992744446,3
34.34926700592041,7
34.34926700592041,6
34.34926700592041,8
34.34926700592041,16
34.34926700592041,3
34.34926700592041,3
34.35127305984497,0
34.35127305984497,6
34.35127305984497,0
34.442320108413696,3
34.442320108413696,2
34.442320108413696,2
34.442320108413696,14
34.442320108413696,1
34.442320108413696,3
34.442320108413696,12
34.442320108413696,0
34.442320108413696,2
34.53778624534607,4
34.53778624534607,2
34.53778624534607,3
34.53778624534607,12
34.53778624534607,13
34.53778624534607,21
34.53778624534607,10
34.53778624534607,19
34.53778624534607,10
34.616169929504395,26
34.616169929504395,8
34.616169929504395,24
34.616169929504395,14
34.616169929504395,19
34.616169929504395,10
34.616169929504395,19
34.616169929504395,10
34.616169929504395,47
34.71224880218506,18
34.71224880218506,38
34.71224880218506,10
34.71224880218506,30
34.71224880218506,3
34.71224880218506,29
34.71224880218506,0
34.71224880218506,13
34.71224880218506,14
34.815961599349976,30
34.815961599349976,1
34.815961599349976,5
34.815961599349976,0
34.815961599349976,12
34.815961599349976,7
34.815961599349976,6
34.815961599349976,4
34.815961599349976,0
34.815961599349976,7
34.910950899124146,0
34.910950899124146,3
34.910950899124146,7
34.910950899124146,24
34.910950899124146,11
34.910950899124146,1
34.910950899124146,2
34.910950899124146,10
34.910950899124146,0
35.00247025489807,14
35.00247025489807,2
35.00247025489807,1
35.00247025489807,8
35.00247025489807,11
35.00247025489807,13
35.00247025489807,19
35.00247025489807,9
35.00247025489807,22
35.09381461143494,8
35.09381461143494,90
35.09381461143494,208
35.09381461143494,37
35.09381461143494,12
35.09381461143494,22
35.09381461143494,4
35.09381461143494,17
35.09381461143494,11
35.18887376785278,39
35.18887376785278,13
35.18887376785278,54
35.18887376785278,15
35.18887376785278,28
35.18887376785278,4
35.18887376785278,41
35.18887376785278,6
35.18887376785278,24
35.28419613838196,36
35.28419613838196,11
35.28419613838196,1
35.28419613838196,4
35.28419613838196,1
35.28419613838196,19
35.28419613838196,20
35.28419613838196,33
35.28419613838196,8
35.37693190574646,0
35.37693190574646,1
35.37693190574646,0
35.37693190574646,1
35.37693190574646,3
35.37693190574646,3
35.37693190574646,0
35.37693190574646,11
35.37693190574646,3
35.471007108688354,61
35.471007108688354,2
35.471007108688354,0
35.471007108688354,1
35.471007108688354,22
35.471007108688354,46
35.471007108688354,28
35.471007108688354,4
35.471007108688354,24
35.471007108688354,20
35.55624556541443,287
35.55624556541443,36
35.55624556541443,66
35.55624556541443,0
35.55624556541443,75
35.55624556541443,32
35.55624556541443,16
35.55624556541443,17
35.55624556541443,27
35.663891315460205,36
35.663891315460205,58
35.663891315460205,89
35.663891315460205,150
35.663891315460205,107
35.663891315460205,88
35.663891315460205,2
35.663891315460205,7
35.663891315460205,123
35.663891315460205,56
35.759047746658325,1
35.759047746658325,41
35.759047746658325,13
35.759047746658325,212
35.759047746658325,45
35.759047746658325,213
35.76079511642456,15
35.76079511642456,16
35.76079511642456,3
35.856061935424805,0
35.856061935424805,11
35.856061935424805,158
35.856061935424805,50
35.856061935424805,11
35.856061935424805,1
35.856061935424805,10
35.856061935424805,7
35.856061935424805,7
35.856061935424805,0
35.9511501789093,23
35.9511501789093,5
35.9511501789093,11
35.9511501789093,119
35.9511501789093,380
35.9511501789093,56
35.9511501789093,5
35.9511501789093,32
35.9511501789093,14
36.05519938468933,259
36.05519938468933,713
36.05519938468933,83
36.05519938468933,24
36.05519938468933,34
36.05519938468933,2
36.05519938468933,47
36.05519938468933,35
36.05519938468933,1
36.05519938468933,108
36.15878081321716,1
36.15878081321716,44
36.15878081321716,49
36.15878081321716,79
36.15878081321716,205
36.15878081321716,6
36.15878081321716,40
36.15878081321716,8
36.15878081321716,9
36.15878081321716,13
36.260050773620605,41
36.260050773620605,65
36.260050773620605,101
36.260050773620605,158
36.260050773620605,203
36.260050773620605,0
36.260050773620605,11
36.260050773620605,9
36.260050773620605,29
36.260050773620605,222
36.349637269973755,81
36.349637269973755,1
36.349637269973755,30
36.349637269973755,1
36.349637269973755,0
36.349637269973755,181
36.349637269973755,110
36.349637269973755,1
36.349637269973755,29
36.349637269973755,45
36.466164350509644,48
36.466164350509644,12
36.466164350509644,9
36.466164350509644,84
36.466164350509644,80
36.466164350509644,0
36.466164350509644,105
36.466164350509644,240
36.466164350509644,51
36.468169927597046,160
36.566587924957275,150
36.566587924957275,0
36.566587924957275,67
36.566587924957275,572
36.566587924957275,287
36.566587924957275,136
36.566587924957275,28
36.566587924957275,40
36.566587924957275,6
36.566587924957275,46
36.670315742492676,50
36.670315742492676,144
36.670315742492676,14
36.670315742492676,23
36.670315742492676,145
36.670315742492676,154
36.670315742492676,234
36.670315742492676,185
36.670315742492676,42
36.670315742492676,20
36.769388914108276,60
36.769388914108276,221
36.769388914108276,114
36.769388914108276,502
36.769388914108276,66
36.769388914108276,69
36.769388914108276,47
36.769388914108276,116
36.769388914108276,279
36.769388914108276,18
36.855313777923584,163
36.855313777923584,11
36.855313777923584,428
36.855313777923584,424
36.855313777923584,437
36.855313777923584,184
36.855313777923584,243
36.855313777923584,10
36.855313777923584,252
36.855313777923584,6
36.968828439712524,310
36.968828439712524,643
36.968828439712524,172
36.968828439712524,383
36.968828439712524,207
36.968828439712524,441
36.968828439712524,186
36.970834493637085,98
36.970834493637085,694
37.06782054901123,146
37.06782054901123,217
37.06782054901123,199
37.06782054901123,187
37.06782054901123,216
37.06782054901123,1023
37.06782054901123,249
37.06782054901123,147
37.06782054901123,32
37.06782054901123,227
37.15738224983215,414
37.15738224983215,387
37.15738224983215,509
37.15738224983215,25
37.15738224983215,116
37.15738224983215,505
37.15738224983215,664
37.15738224983215,705
37.15738224983215,146
37.255080699920654,882
37.255080699920654,523
37.255080699920654,445
37.255080699920654,88
37.255080699920654,115
37.255080699920654,416
37.255080699920654,646
37.255080699920654,108
37.255080699920654,327
37.255080699920654,4
37.355507373809814,255
37.355507373809814,405
37.355507373809814,229
37.355507373809814,208
37.355507373809814,493
37.355507373809814,350
37.355507373809814,19
37.355507373809814,101
37.355507373809814,321
37.455323696136475,192
37.455323696136475,578
37.455323696136475,1023
37.455323696136475,489
37.455323696136475,372
37.455323696136475,208
37.455323696136475,439
37.455323696136475,960
37.455323696136475,31
37.556740522384644,153
37.556740522384644,69
37.556740522384644,35
37.556740522384644,457
37.556740522384644,221
37.556740522384644,355
37.55874562263489,390
37.55874562263489,708
37.55874562263489,79
37.55874562263489,558
37.55874562263489,122
37.64957666397095,1013
37.64957666397095,410
37.64957666397095,385
37.64957666397095,1023
37.64957666397095,29
37.64957666397095,152
37.64957666397095,2
37.64957666397095,54
37.64957666397095,272
37.64957666397095,515
37.75907015800476,25
37.76081705093384,628
37.76081705093384,90
37.76081705093384,281
37.76081705093384,93
37.76081705093384,470
37.76081705093384,689
37.76081705093384,6
37.76081705093384,960
37.856313943862915,256
37.856313943862915,154
37.856313943862915,1016
37.856313943862915,634
37.856313943862915,105
37.856313943862915,471
37.856313943862915,1015
37.856313943862915,298
37.856313943862915,655
37.856313943862915,850
37.95262837409973,749
37.95262837409973,195
37.95262837409973,271
37.95262837409973,783
37.95262837409973,403
37.95262837409973,305
37.95262837409973,45
37.95262837409973,820
37.95262837409973,7
37.95262837409973,841
38.06399703025818,16
38.06399703025818,337
38.06399703025818,274
38.06399703025818,125
38.06399703025818,272
38.06399703025818,588
38.06399703025818,692
38.06399703025818,629
38.06399703025818,954
38.06399703025818,21
38.06399703025818,392
38.17740750312805,537
38.17740750312805,727
38.17740750312805,524
38.17740750312805,692
38.17740750312805,90
38.17740750312805,418
38.17740750312805,197
38.17740750312805,97
38.17740750312805,201
38.17740750312805,909
38.27871012687683,356
38.27871012687683,430
38.28121757507324,243
38.28121757507324,33
38.28121757507324,531
38.28121757507324,246
38.28121757507324,770
38.28121757507324,661
38.28121757507324,242
38.28121757507324,16
38.381824016571045,70
38.381824016571045,105
38.381824016571045,500
38.381824016571045,162
38.381824016571045,615
38.381824016571045,830
38.381824016571045,332
38.381824016571045,141
38.381824016571045,480
38.381824016571045,282
38.49344491958618,164
38.49344491958618,15
38.49344491958618,623
38.49344491958618,678
38.49344491958618,180
38.49344491958618,67
38.49344491958618,2
38.49344491958618,161
38.49344491958618,8
38.49344491958618,581
38.49344491958618,40
38.5953369140625,513
38.5953369140625,196
38.5953369140625,796
38.5953369140625,177
38.5953369140625,56
38.5953369140625,6
38.5953369140625,12
38.5953369140625,1023
38.5953369140625,188
38.5953369140625,214
38.69422793388367,421
38.696232080459595,1023
38.696232080459595,1023
38.696232080459595,39
38.696232080459595,110
38.696232080459595,185
38.696232080459595,77
38.696232080459595,947
38.696232080459595,89
38.696232080459595,171
38.79668188095093,150
38.79668188095093,137
38.79668188095093,176
38.79668188095093,560
38.79668188095093,149
38.79668188095093,918
38.79668188095093,62
38.79668188095093,183
38.79668188095093,279
38.8906090259552,147
38.8906090259552,88
38.8906090259552,182
38.8906090259552,33
38.8906090259552,267
38.8906090259552,71
38.8906090259552,11
38.8906090259552,406
38.8906090259552,101
38.8906090259552,50
38.99621510505676,304
38.99621510505676,103
38.998220682144165,941
38.998220682144165,30
38.998220682144165,484
38.998220682144165,311
38.998220682144165,731
38.998220682144165,149
38.998220682144165,334
38.998220682144165,305
39.09926152229309,271
39.09926152229309,383
39.09926152229309,286
39.09926152229309,1023
39.09926152229309,44
39.09926152229309,136
39.09926152229309,68
39.09926152229309,251
39.09926152229309,122
39.09926152229309,451
39.19100761413574,81
39.19100761413574,478
39.20151495933533,92
39.20151495933533,88
39.20151495933533,17
39.20151495933533,72
39.20151495933533,99
39.20151495933533,809
39.20151495933533,165
39.20151495933533,477
39.29768252372742,819
39.29768252372742,196
39.29768252372742,34
39.29768252372742,36
39.29768252372742,776
39.29768252372742,65
39.29768252372742,19
39.29768252372742,95
39.29768252372742,530
39.29768252372742,923
39.39872932434082,194
39.39872932434082,11
39.39872932434082,89
39.39872932434082,186
39.39872932434082,307
39.39872932434082,54
39.39872932434082,468
39.39872932434082,700
39.39872932434082,459
39.494574546813965,34
39.494574546813965,58
39.494574546813965,294
39.494574546813965,63
39.494574546813965,142
39.494574546813965,43
39.494574546813965,539
39.494574546813965,221
39.494574546813965,70
39.494574546813965,91
39.592437982559204,180
39.592437982559204,200
39.592437982559204,4
39.592437982559204,345
39.592437982559204,878
39.592437982559204,381
39.592437982559204,904
39.592437982559204,271
39.592437982559204,268
39.68619894981384,139
39.68619894981384,14
39.68619894981384,326
39.68619894981384,535
39.68619894981384,161
39.68619894981384,432
39.68619894981384,110
39.68619894981384,18
39.68619894981384,41
39.68619894981384,5
39.79136919975281,9
39.79136919975281,97
39.79299211502075,54
39.79299211502075,301
39.79299211502075,100
39.79299211502075,9
39.79299211502075,10
39.79299211502075,25
39.79299211502075,34
39.79299211502075,28
39.89304566383362,525
39.89304566383362,85
39.89304566383362,546
39.89304566383362,622
39.89304566383362,20
39.89304566383362,56
39.89304566383362,0
39.89304566383362,0
39.89304566383362,19
39.89304566383362,29
39.98617124557495,51
39.98617124557495,21
39.98617124557495,136
39.98617124557495,247
39.98617124557495,47
39.98617124557495,54
39.98617124557495,2
39.98617124557495,2
39.98617124557495,15
40.09043478965759,54
40.09043478965759,12
40.09043478965759,599
40.09043478965759,26
40.09043478965759,112
40.09043478965759,60
40.09043478965759,13
40.09043478965759,1
40.09043478965759,32
40.09043478965759,10
40.18936777114868,19
40.18936777114868,0
40.18936777114868,110
40.18936777114868,31
40.18936777114868,80
40.18936777114868,14
40.18936777114868,0
40.18936777114868,3
40.18936777114868,1
40.18936777114868,11
40.28862237930298,0
40.28862237930298,3
40.28962850570679,12
40.28962850570679,181
40.28962850570679,38
40.28962850570679,1
40.28962850570679,45
40.28962850570679,1
40.28962850570679,3
40.38853716850281,11
40.38853716850281,20
40.38853716850281,16
40.38853716850281,11
40.38853716850281,39
40.38853716850281,4
40.38853716850281,42
40.38853716850281,107
40.38853716850281,35
40.38853716850281,85
40.48961520195007,45
40.48961520195007,7
40.48961520195007,7
40.48961520195007,10
40.48961520195007,23
40.48961520195007,15
40.48961520195007,25
40.48961520195007,15
40.48961520195007,39
40.48961520195007,20
40.59255266189575,37
40.59255266189575,0
40.59255266189575,28
40.59255266189575,0
40.59255266189575,34
40.59255266189575,17
40.59255266189575,20
40.59255266189575,1
40.59255266189575,10
40.59255266189575,4
40.685197830200195,24
40.685197830200195,4
40.685197830200195,1
40.685197830200195,9
40.685197830200195,0
40.685197830200195,10
40.685197830200195,6
40.685197830200195,7
40.685197830200195,11
40.685197830200195,15
40.79530715942383,8
40.79530715942383,64
40.79530715942383,100
40.79530715942383,5
40.79530715942383,0
40.796812534332275,0
40.796812534332275,3
40.796812534332275,8
40.796812534332275,9
40.796812534332275,23
40.89219403266907,16
40.89219403266907,9
40.89219403266907,7
40.89219403266907,27
40.89219403266907,5
40.89219403266907,23
40.89219403266907,19
40.89219403266907,33
40.89219403266907,7
40.89219403266907,20
40.98792743682861,11
40.98792743682861,34
40.98792743682861,13
40.98792743682861,39
40.98792743682861,0
40.98792743682861,13
40.98792743682861,65
40.98792743682861,47
40.98792743682861,5
40.98792743682861,20
41.09860801696777,1
41.09860801696777,32
41.09860801696777,9
41.09860801696777,25
41.09860801696777,0
41.09860801696777,6
41.09860801696777,2
41.09860801696777,12
41.09860801696777,4
41.09860801696777,0
41.19928789138794,1
41.19928789138794,14
41.19928789138794,114
41.19928789138794,0
41.19928789138794,3
41.19928789138794,10
41.19928789138794,15
41.19928789138794,11
41.19928789138794,7
41.19928789138794,0
41.30023169517517,4
41.30023169517517,1
41.30023169517517,0
41.30023169517517,31
41.30023169517517,2
41.30023169517517,14
41.30023169517517,24
41.30023169517517,11
41.30023169517517,42
41.30023169517517,7
41.404436111450195,27
41.404436111450195,15
41.404436111450195,23
41.404436111450195,14
41.404436111450195,64
41.404436111450195,73
41.404436111450195,25
41.404436111450195,4
41.404436111450195,39
41.404436111450195,16
41.49547863006592,44
41.49547863006592,13
41.49547863006592,34
41.49547863006592,7
41.49547863006592,28
41.49547863006592,6
41.49547863006592,20
41.49547863006592,6
41.49547863006592,33
41.49547863006592,10
41.60777735710144,14
41.60777735710144,2
41.60777735710144,9
41.60777735710144,8
41.60777735710144,7
41.60777735710144,2
41.60777735710144,0
41.60777735710144,3
41.60777735710144,0
41.60777735710144,5
41.70473909378052,2
41.70473909378052,1
41.70473909378052,5
41.70473909378052,20
41.70473909378052,26
41.70473909378052,0
41.70473909378052,3
41.70473909378052,3
41.70473909378052,8
41.79804277420044,19
41.79804277420044,24
41.79804277420044,19
41.79804277420044,18
41.79804277420044,25
41.79804277420044,13
41.79804277420044,23
41.79804277420044,13
41.79804277420044,25
41.79804277420044,10
41.894280195236206,22
41.894280195236206,17
41.894280195236206,23
41.894280195236206,1
41.894280195236206,9
41.894280195236206,11
41.894280195236206,29
41.894280195236206,20
41.894280195236206,41
41.894280195236206,13
41.99948573112488,34
41.99948573112488,6
41.99948573112488,17
41.99948573112488,1
41.99948573112488,32
41.99948573112488,0
41.99948573112488,35
41.99948573112488,10
41.99948573112488,10
42.102476835250854,0
42.102476835250854,12
42.102476835250854,5
42.10408425331116,6
42.10408425331116,5
42.10408425331116,0
42.10408425331116,11
42.10408425331116,0
42.10408425331116,2
42.10408425331116,7
42.19431114196777,0
42.19431114196777,18
42.19431114196777,10
42.19431114196777,11
42.19431114196777,9
42.19431114196777,1
42.19431114196777,1
42.19431114196777,6
42.19431114196777,0
42.19431114196777,6
42.3063325881958,14
42.3063325881958,13
42.3063325881958,24
42.3063325881958,11
42.3063325881958,20
42.3063325881958,17
42.3063325881958,25
42.3063325881958,12
42.3063325881958,27
42.3063325881958,19
42.40610218048096,22
42.40610218048096,7
42.40610218048096,20
42.40610218048096,19
42.40610218048096,41
42.40610218048096,18
42.40610218048096,48
42.40610218048096,13
42.40610218048096,43
42.40610218048096,4
42.40610218048096,32
42.51297664642334,2
42.51297664642334,11
42.51297664642334,12
42.51297664642334,42
42.51297664642334,2
42.51297664642334,4
42.51297664642334,0
42.51297664642334,11
42.51297664642334,13
42.51297664642334,8
42.608099699020386,0
42.608099699020386,0
42.608099699020386,2
42.608099699020386,0
42.608099699020386,0
42.608099699020386,3
42.608099699020386,0
42.608099699020386,21
42.608099699020386,14
42.698633432388306,3
42.698633432388306,18
42.698633432388306,1
42.698633432388306,0
42.698633432388306,6
42.698633432388306,2
42.698633432388306,7
42.698633432388306,14
42.698633432388306,16
42.793222427368164,1
42.793222427368164,13
42.793222427368164,31
42.793222427368164,11
42.793222427368164,27
42.793222427368164,14
42.793222427368164,30
42.793222427368164,11
42.793222427368164,25
42.876952171325684,1
42.876952171325684,23
42.88721680641174,13
42.88721680641174,43
42.88721680641174,14
42.88721680641174,40
42.88721680641174,11
42.88721680641174,36
42.88721680641174,21
42.971765995025635,23
42.971765995025635,0
42.971765995025635,29
42.971765995025635,19
42.971765995025635,23
42.971765995025635,1
42.971765995025635,6
42.971765995025635,0
42.971765995025635,15
43.067973136901855,5
43.067973136901855,2
43.067973136901855,0
43.067973136901855,0
43.07806921005249,3
43.07806921005249,0
43.07806921005249,3
43.07806921005249,5
43.07806921005249,0
43.07806921005249,18
43.16245079040527,0
43.16245079040527,4
43.16245079040527,7
43.16245079040527,2
43.16245079040527,0
43.16245079040527,13
43.16245079040527,1
43.16245079040527,6
43.16245079040527,13
43.257991313934326,15
43.257991313934326,26
43.257991313934326,9
43.257991313934326,24
43.257991313934326,13
43.257991313934326,26
43.257991313934326,13
43.257991313934326,31
43.257991313934326,13
43.257991313934326,24
43.36565613746643,1
43.36565613746643,22
43.36565613746643,15
43.36565613746643,39
43.36565613746643,14
43.36565613746643,39
43.36565613746643,10
43.36565613746643,31
43.36565613746643,16
43.46534991264343,27
43.466960430145264,5
43.466960430145264,16
43.466960430145264,13
43.466960430145264,22
43.466960430145264,2
43.466960430145264,0
43.466960430145264,1
43.466960430145264,8
43.466960430145264,7
43.55725812911987,3
43.55725812911987,3
43.55725812911987,0
43.55725812911987,1
43.55725812911987,1
43.55725812911987,2
43.55725812911987,8
43.55725812911987,1
43.55725812911987,20
43.55725812911987,5
43.65074682235718,14
43.65074682235718,0
43.65074682235718,2
43.65074682235718,0
43.65074682235718,5
43.65074682235718,0
43.65074682235718,8
43.65074682235718,12
43.65074682235718,22
43.75648617744446,24
43.75648617744446,14
43.75648617744446,24
43.75648617744446,18
43.75648617744446,27
43.75648617744446,15
43.75648617744446,32
43.75648617744446,14
43.75648617744446,29
43.75648617744446,1
43.85421347618103,21
43.85421347618103,11
43.85421347618103,43
43.85421347618103,18
43.85421347618103,41
43.85421347618103,12
43.85421347618103,32
43.85421347618103,4
43.85421347618103,26
43.95562529563904,2
43.95562529563904,16
43.95562529563904,13
43.95562529563904,28
43.95562529563904,1
43.95562529563904,8
43.95562529563904,0
43.95562529563904,8
43.95562529563904,12
43.95562529563904,3
44.04650902748108,0
44.04650902748108,0
44.04650902748108,1
44.04650902748108,1
44.04650902748108,1
44.04650902748108,0
44.04650902748108,0
44.04650902748108,19
44.04650902748108,5
44.04650902748108,6
44.14229989051819,14
44.14229989051819,2
44.14229989051819,0
44.14229989051819,8
44.14229989051819,1
44.14229989051819,5
44.14229989051819,15
44.14229989051819,13
44.14229989051819,25
44.238619565963745,13
44.238619565963745,26
44.238619565963745,15
44.238619565963745,29
44.238619565963745,14
44.238619565963745,36
44.238619565963745,17
44.238619565963745,23
44.238619565963745,7
44.333829402923584,16
44.333829402923584,15
44.333829402923584,42
44.333829402923584,15
44.333829402923584,42
44.333829402923584,11
44.333829402923584,33
44.333829402923584,5
44.333829402923584,27
44.333829402923584,0
44.43658518791199,1
44.43859100341797,8
44.43859100341797,33
44.43859100341797,9
44.43859100341797,10
44.43859100341797,0
44.43859100341797,19
44.43859100341797,14
44.43859100341797,0
44.532126665115356,3
44.532126665115356,0
44.532126665115356,5
44.532126665115356,3
44.532126665115356,2
44.532126665115356,6
44.53413248062134,0
44.53413248062134,16
44.53413248062134,7
44.53413248062134,9
44.61844277381897,5
44.61844277381897,2
44.61844277381897,1
44.61844277381897,7
44.61844277381897,0
44.61844277381897,5
44.61844277381897,7
44.61844277381897,18
44.61844277381897,22
44.713369369506836,19
44.713369369506836,26
44.713369369506836,11
44.713369369506836,26
44.713369369506836,12
44.713369369506836,18
44.713369369506836,12
44.713369369506836,14
44.713369369506836,1
44.81999611854553,0
44.81999611854553,0
44.81999611854553,17
44.81999611854553,6
44.81999611854553,29
44.81999611854553,5
44.81999611854553,22
44.81999611854553,2
44.81999611854553,19
44.81999611854553,1
44.90482521057129,4
44.90482521057129,0
44.90482521057129,2
44.90482521057129,4
44.90482521057129,20
44.90482521057129,0
44.90482521057129,0
44.90482521057129,0
44.90482521057129,0
45.0121009349823,0
45.0121009349823,1
45.0121009349823,5
45.0121009349823,4
45.0121009349823,0
45.0121009349823,1
45.0121009349823,10
45.0121009349823,1
45.0121009349823,1
45.0121009349823,18
45.11029410362244,21
45.11029410362244,17
45.11029410362244,1
45.11029410362244,0
45.11029410362244,0
45.11029410362244,2
45.11029410362244,3
45.11029410362244,2
45.11029410362244,9
45.19304323196411,8
45.19304323196411,21
45.19304323196411,5
45.19304323196411,14
45.19304323196411,6
45.19304323196411,13
45.19304323196411,0
45.19304323196411,11
45.19304323196411,2
45.19304323196411,23
45.299224853515625,13
45.299224853515625,0
45.299224853515625,8
45.299224853515625,3
45.299224853515625,0
45.299224853515625,17
45.299224853515625,0
45.299224853515625,34
45.299224853515625,8
45.395599603652954,4
45.395599603652954,12
45.395599603652954,10
45.395599603652954,3
45.395599603652954,0
45.395599603652954,0
45.395599603652954,15
45.395599603652954,1
45.395599603652954,1
45.498881340026855,0
45.498881340026855,0
45.498881340026855,0
45.498881340026855,1
45.498881340026855,0
45.498881340026855,0
45.498881340026855,0
45.498881340026855,0
45.498881340026855,0
45.498881340026855,5
45.498881340026855,0
45.602964639663696,0
45.602964639663696,27
45.602964639663696,45
45.602964639663696,16
45.602964639663696,0
45.602964639663696,24
45.602964639663696,0
45.602964639663696,20
45.602964639663696,2
45.602964639663696,13
45.701252937316895,23
45.701252937316895,24
45.701252937316895,1
45.701252937316895,0
45.701252937316895,1
45.701252937316895,26
45.701252937316895,7
45.701252937316895,19
45.701252937316895,12
45.701252937316895,39
45.80752086639404,0
45.80752086639404,1
45.80752086639404,12
45.80752086639404,1
45.80752086639404,8
45.809526443481445,27
45.809526443481445,9
45.809526443481445,12
45.809526443481445,7
45.809526443481445,29
45.908405780792236,0
45.908405780792236,45
45.908405780792236,27
45.908405780792236,17
45.908405780792236,36
45.908405780792236,37
45.908405780792236,0
45.908405780792236,3
45.908405780792236,15
45.908405780792236,2
46.00613760948181,14
46.00613760948181,0
46.00613760948181,0
46.00613760948181,2
46.00613760948181,4
46.00613760948181,12
46.00613760948181,0
46.00613760948181,7
46.00613760948181,1
46.00613760948181,22
46.10948848724365,5
46.10948848724365,52
46.10948848724365,10
46.10948848724365,0
46.10948848724365,31
46.10948848724365,44
46.10948848724365,117
46.10948848724365,2
46.10948848724365,13
46.200401067733765,36
46.200401067733765,29
46.200401067733765,19
46.200401067733765,25
46.200401067733765,0
46.200401067733765,0
46.200401067733765,28
46.200401067733765,37
46.200401067733765,1
46.200401067733765,10
46.30491805076599,1
46.30491805076599,28
46.30491805076599,26
46.30491805076599,40
46.30491805076599,4
46.30491805076599,27
46.30491805076599,6
46.30491805076599,155
46.30491805076599,144
46.30491805076599,37
46.404391050338745,24
46.404391050338745,35
46.404391050338745,11
46.404391050338745,55
46.404391050338745,42
46.404391050338745,74
46.404391050338745,113
46.404391050338745,0
46.404391050338745,45
46.495505809783936,97
46.495505809783936,78
46.495505809783936,125
46.495505809783936,38
46.495505809783936,6
46.495505809783936,4
46.495505809783936,98
46.495505809783936,18
46.495505809783936,123
46.495505809783936,48
46.59140491485596,212
46.59140491485596,51
46.59140491485596,3
46.59140491485596,83
46.59140491485596,12
46.59140491485596,68
46.59140491485596,141
46.59140491485596,79
46.59140491485596,32
46.68527317047119,46
46.68527317047119,63
46.68527317047119,104
46.68527317047119,161
46.68527317047119,99
46.68527317047119,72
46.68527317047119,123
46.68527317047119,20
46.68527317047119,143
46.7813880443573,254
46.7813880443573,421
46.7813880443573,85
46.7813880443573,90
46.7813880443573,209
46.7813880443573,16
46.7813880443573,129
46.7813880443573,173
46.7813880443573,142
46.7813880443573,177
46.8960063457489,164
46.8960063457489,266
46.8960063457489,280
46.8960063457489,537
46.8960063457489,111
46.8960063457489,202
46.8960063457489,108
46.8960063457489,326
46.8960063457489,38
46.8960063457489,152
46.8960063457489,17
46.99602031707764,108
46.99602031707764,122
46.99602031707764,876
46.99602031707764,422
46.99602031707764,523
46.99602031707764,208
46.99602031707764,90
46.99602031707764,204
46.99602031707764,117
47.083622217178345,84
47.083622217178345,285
47.083622217178345,158
47.083622217178345,72
47.083622217178345,1023
47.083622217178345,168
47.083622217178345,179
47.083622217178345,738
47.083622217178345,614
47.17968797683716,59
47.17968797683716,97
47.17968797683716,803
47.17968797683716,626
47.17968797683716,177
47.17968797683716,450
47.17968797683716,489
47.17968797683716,12
47.17968797683716,451
47.17968797683716,258
47.276978492736816,291
47.276978492736816,282
47.276978492736816,241
47.276978492736816,384
47.276978492736816,772
47.276978492736816,686
47.276978492736816,220
47.276978492736816,244
47.276978492736816,437
47.37478518486023,200
47.37478518486023,397
47.37478518486023,476
47.37478518486023,424
47.37478518486023,858
47.37478518486023,234
47.37478518486023,882
47.37478518486023,141
47.37478518486023,24
47.46688938140869,916
47.46688938140869,490
47.46688938140869,359
47.46688938140869,428
47.46688938140869,31
47.46688938140869,52
47.46688938140869,643
47.46688938140869,124
47.46688938140869,344
47.46688938140869,382
47.56280446052551,945
47.56280446052551,52
47.56280446052551,552
47.56280446052551,142
47.56280446052551,570
47.56280446052551,396
47.56280446052551,261
47.56280446052551,232
47.56280446052551,536
47.67398977279663,312
47.67398977279663,582
47.67398977279663,273
47.67398977279663,432
47.67398977279663,493
47.67398977279663,37
47.67398977279663,135
47.67398977279663,68
47.67398977279663,78
47.67398977279663,109
47.67398977279663,32
47.77017784118652,992
47.77017784118652,411
47.77017784118652,231
47.77017784118652,945
47.77017784118652,150
47.77017784118652,556
47.77017784118652,302
47.77017784118652,1023
47.77017784118652,340
47.86610507965088,274
47.86610507965088,622
47.86610507965088,32
47.86610507965088,497
47.86610507965088,121
47.86610507965088,258
47.86610507965088,962
47.86610507965088,1
47.86610507965088,334
47.86610507965088,186
47.961718797683716,592
47.961718797683716,424
47.961718797683716,51
47.961718797683716,167
47.961718797683716,54
47.961718797683716,21
47.961718797683716,172
47.961718797683716,931
47.961718797683716,459
48.05763101577759,167
48.05763101577759,547
48.05763101577759,375
48.05763101577759,593
48.05763101577759,122
48.05763101577759,30
48.05763101577759,246
48.05763101577759,132
48.05763101577759,272
48.15247368812561,562
48.15247368812561,110
48.15247368812561,3
48.15247368812561,216
48.15247368812561,232
48.15247368812561,314
48.15247368812561,251
48.15247368812561,539
48.15247368812561,150
48.15247368812561,72
48.26416993141174,50
48.26416993141174,19
48.26416993141174,44
48.26416993141174,171
48.26416993141174,305
48.26416993141174,334
48.26416993141174,13
48.26416993141174,88
48.26416993141174,315
48.26416993141174,45
48.35863924026489,42
48.35863924026489,557
48.35863924026489,501
48.35863924026489,328
48.35863924026489,865
48.35863924026489,270
48.35863924026489,239
48.35863924026489,96
48.35863924026489,0
48.454455852508545,210
48.454455852508545,310
48.454455852508545,179
48.454455852508545,619
48.454455852508545,256
48.454455852508545,194
48.454455852508545,286
48.454455852508545,45
48.454455852508545,497
48.454455852508545,585
48.57135367393494,556
48.57135367393494,20
48.57336735725403,632
48.57336735725403,105
48.57336735725403,98
48.57336735725403,217
48.57336735725403,302
48.57336735725403,575
48.57336735725403,496
48.57336735725403,288
48.57336735725403,152
48.67693877220154,152
48.67693877220154,144
48.67693877220154,385
48.67693877220154,410
48.67693877220154,10
48.67693877220154,331
48.67693877220154,83
48.67693877220154,476
48.67693877220154,67
48.67693877220154,13
48.77261281013489,64
48.77261281013489,73
48.77261281013489,129
48.77261281013489,350
48.77261281013489,456
48.77261281013489,246
48.77261281013489,118
48.77261281013489,592
48.77261281013489,477
48.77261281013489,99
48.884427070617676,196
48.884427070617676,124
48.884427070617676,44
48.884427070617676,704
48.884427070617676,35
48.884427070617676,197
48.884427070617676,280
48.884427070617676,197
48.884427070617676,590
48.884427070617676,283
48.9852077960968,114
48.9852077960968,417
48.9852077960968,193
48.9852077960968,52
48.9852077960968,294
48.9852077960968,518
48.9852077960968,471
48.9852077960968,106
48.9852077960968,480
48.98721385002136,115
49.074891805648804,99
49.074891805648804,374
49.074891805648804,8
49.074891805648804,354
49.074891805648804,188
49.074891805648804,0
49.074891805648804,222
49.074891805648804,10
49.074891805648804,3
49.074891805648804,523
49.17039895057678,62
49.17039895057678,389
49.17039895057678,202
49.17039895057678,157
49.17039895057678,67
49.17039895057678,26
49.17039895057678,135
49.17039895057678,13
49.17039895057678,66
49.26604199409485,72
49.26604199409485,110
49.26604199409485,11
49.26604199409485,123
49.26604199409485,236
49.26604199409485,161
49.26604199409485,641
49.26604199409485,59
49.26604199409485,455
49.26604199409485,396
49.36200737953186,85
49.36200737953186,23
49.36200737953186,471
49.36200737953186,137
49.36200737953186,1023
49.36200737953186,290
49.36200737953186,37
49.36200737953186,22
49.36200737953186,129
49.45976734161377,338
49.45976734161377,96
49.45976734161377,64
49.45976734161377,252
49.45976734161377,37
49.45976734161377,22
49.45976734161377,181
49.45976734161377,3
49.45976734161377,123
49.45976734161377,12
49.55366516113281,99
49.55366516113281,301
49.55366516113281,437
49.55366516113281,100
49.55366516113281,0
49.55366516113281,529
49.55366516113281,157
49.55366516113281,62
49.55366516113281,0
49.66513013839722,534
49.66513013839722,330
49.66513013839722,278
49.66513013839722,78
49.66513013839722,737
49.66513013839722,1023
49.66513013839722,198
49.66513013839722,9
49.66513013839722,25
49.66513013839722,672
49.76029396057129,106
49.76029396057129,122
49.76029396057129,49
49.76029396057129,130
49.76029396057129,18
49.76029396057129,38
49.76029396057129,33
49.76029396057129,258
49.76029396057129,120
49.85605478286743,2
49.85605478286743,41
49.85605478286743,10
49.85605478286743,445
49.85605478286743,88
49.85605478286743,75
49.85605478286743,3
49.85605478286743,133
49.85605478286743,4
49.9535448551178,33
49.9535448551178,451
49.9535448551178,61
49.9535448551178,7
49.9535448551178,7
49.9535448551178,1
49.9535448551178,50
49.9535448551178,15
49.9535448551178,485
49.9535448551178,96
50.045445919036865,161
50.045445919036865,0
50.045445919036865,3
50.045445919036865,3
50.045445919036865,24
50.045445919036865,3
50.045445919036865,0
50.045445919036865,4
50.045445919036865,17
50.045445919036865,126
50.15754246711731,149
50.15754246711731,25
50.15754246711731,18
50.15754246711731,19
50.15754246711731,1
50.15754246711731,37
50.15754246711731,5
50.15754246711731,59
50.15754246711731,0
50.15754246711731,30
50.26079487800598,18
50.26079487800598,59
50.26079487800598,104
50.26079487800598,204
50.26079487800598,16
50.26079487800598,46
50.26079487800598,21
50.26079487800598,45
50.26079487800598,42
50.26280069351196,25
50.348350286483765,14
50.348350286483765,26
50.348350286483765,0
50.36420130729675,27
50.36420130729675,4
50.36420130729675,38
50.36420130729675,2
50.36420130729675,12
50.36420130729675,1
50.36420130729675,1
50.46029877662659,0
50.46029877662659,4
50.46029877662659,0
50.46029877662659,0
50.46029877662659,9
50.46029877662659,9
50.46029877662659,0
50.46029877662659,0
50.46029877662659,39
50.556577920913696,15
50.556577920913696,15
50.556577920913696,0
50.556577920913696,1
50.556577920913696,0
50.556577920913696,0
50.556577920913696,31
50.556577920913696,23
50.556577920913696,24
50.556577920913696,10
50.64892053604126,17
50.64892053604126,33
50.64892053604126,28
50.64892053604126,62
50.64892053604126,4
50.64892053604126,34
50.64892053604126,17
50.64892053604126,25
50.64892053604126,12
50.64892053604126,42
50.74425649642944,39
50.74425649642944,6
50.74425649642944,8
50.74425649642944,30
50.74425649642944,22
50.74425649642944,52
50.74425649642944,18
50.74425649642944,45
50.74425649642944,1
50.84011197090149,43
50.84011197090149,33
50.84011197090149,2
50.84011197090149,21
50.84011197090149,21
50.84011197090149,6
50.84011197090149,19
50.84011197090149,0
50.84011197090149,30
50.84011197090149,7
50.95163822174072,31
50.95163822174072,1
50.95163822174072,0
50.95163822174072,0
50.95163822174072,0
50.95163822174072,0
50.95163822174072,1
50.95163822174072,0
50.95163822174072,11
50.95163822174072,17
51.04711604118347,7
51.04711604118347,0
51.04711604118347,15
51.04711604118347,10
51.04711604118347,0
51.04711604118347,0
51.04711604118347,0
51.04711604118347,14
51.04711604118347,0
51.14717102050781,39
51.14717102050781,15
51.14717102050781,24
51.14717102050781,7
51.14717102050781,28
51.14717102050781,12
51.14717102050781,27
51.14717102050781,14
51.149176597595215,27
51.149176597595215,9
51.24609136581421,33
51.24609136581421,21
51.24609136581421,34
51.24609136581421,16
51.24609136581421,40
51.24609136581421,1
51.24609136581421,15
51.24609136581421,0
51.24609136581421,21
51.24609136581421,23
51.34413170814514,16
51.34413170814514,5
51.34413170814514,24
51.34413170814514,36
51.34413170814514,15
51.34413170814514,0
51.34413170814514,19
51.34413170814514,2
51.34413170814514,0
51.44624066352844,0
51.44624066352844,4
51.44624066352844,11
51.44624066352844,0
51.44624066352844,1
51.44624066352844,4
51.44624066352844,0
51.44624066352844,12
51.44824576377869,19
51.44824576377869,11
51.54104518890381,5
51.54104518890381,13
51.54104518890381,1
51.54104518890381,0
51.54104518890381,22
51.54104518890381,9
51.54104518890381,9
51.54104518890381,20
51.54104518890381,21
51.54104518890381,3
51.654141664505005,16
51.654141664505005,9
51.654141664505005,30
51.654141664505005,12
51.654141664505005,31
51.654141664505005,15
51.654141664505005,43
51.654141664505005,23
51.654141664505005,5
51.654141664505005,7
51.74724006652832,30
51.74724006652832,14
51.74724006652832,51
51.74724006652832,10
51.74724006652832,39
51.74724006652832,6
51.74724006652832,27
51.74724006652832,6
51.74724006652832,7
51.74724006652832,36
51.74724006652832,34
51.85734534263611,13
51.85734534263611,19
51.85734534263611,0
51.85734534263611,1
51.85734534263611,3
51.85734534263611,9
51.85734534263611,6
51.85734534263611,0
51.85734534263611,3
51.85734534263611,0
51.95306062698364,0
51.95306062698364,2
51.95306062698364,0
51.95306062698364,4
51.95306062698364,5
51.95306062698364,12
51.95306062698364,8
51.95306062698364,4
51.95306062698364,5
52.05790829658508,5
52.05790829658508,0
52.05790829658508,11
52.05790829658508,11
52.059913873672485,13
52.059913873672485,23
52.059913873672485,15
52.059913873672485,20
52.059913873672485,12
52.059913873672485,24
52.160812854766846,21
52.160812854766846,20
52.160812854766846,19
52.160812854766846,32
52.160812854766846,9
52.160812854766846,13
52.160812854766846,11
52.160812854766846,25
52.160812854766846,16
52.160812854766846,48
52.2536416053772,7
52.2536416053772,33
52.2536416053772,14
52.2536416053772,28
52.2536416053772,4
52.2536416053772,20
52.2536416053772,0
52.2536416053772,19
52.2536416053772,15
52.2536416053772,14
52.361623764038086,5
52.361623764038086,0
52.361623764038086,5
52.361623764038086,4
52.36362862586975,2
52.36362862586975,1
52.36362862586975,0
52.36362862586975,10
52.36362862586975,11
52.36362862586975,1
52.455307722091675,0
52.455307722091675,7
52.455307722091675,8
52.455307722091675,21
52.455307722091675,1
52.455307722091675,5
52.455307722091675,3
52.455307722091675,1
52.455307722091675,0
52.455307722091675,7
52.55541157722473,2
52.55541157722473,7
52.55541157722473,10
52.55541157722473,17
52.55541157722473,25
52.55541157722473,6
52.55541157722473,20
52.55541157722473,16
52.55541157722473,22
52.651174783706665,10
52.651174783706665,30
52.651174783706665,20
52.651174783706665,24
52.651174783706665,7
52.653180837631226,19
52.653180837631226,11
52.653180837631226,31
52.653180837631226,8
52.74794149398804,40
52.74794149398804,14
52.74794149398804,34
52.74794149398804,6
52.74794149398804,28
52.74794149398804,1
52.74794149398804,11
52.74794149398804,0
52.74794149398804,35
52.74994778633118,7
52.84396266937256,7
52.84396266937256,0
52.84396266937256,5
52.84396266937256,2
52.84396266937256,18
52.84396266937256,6
52.84396266937256,8
52.84396266937256,0
52.84396266937256,0
52.93749499320984,9
52.93749499320984,3
52.93749499320984,3
52.93749499320984,9
52.93749499320984,25
52.93749499320984,38
52.93749499320984,0
52.93749499320984,0
52.93749499320984,2
52.93749499320984,0
53.03329920768738,0
53.03329920768738,2
53.03329920768738,12
53.03329920768738,23
53.03329920768738,10
53.03329920768738,15
53.03329920768738,23
53.03329920768738,16
53.03329920768738,24
53.12890315055847,29
53.12890315055847,19
53.12890315055847,17
53.12890315055847,45
53.12890315055847,10
53.12890315055847,21
53.12890315055847,5
53.12890315055847,32
53.12890315055847,22
53.12890315055847,43
53.22679376602173,26
53.22679376602173,35
53.22679376602173,7
53.22679376602173,27
53.22679376602173,1
53.22679376602173,19
53.22679376602173,9
53.22679376602173,30
53.22679376602173,13
53.31899118423462,14
53.31899118423462,0
53.31899118423462,11
53.31899118423462,10
53.31899118423462,0
53.31899118423462,0
53.31899118423462,0
53.31899118423462,12
53.31899118423462,1
53.41481423377991,6
53.41481423377991,5
53.41481423377991,0
53.41481423377991,15
53.41481423377991,17
53.41481423377991,12
53.41481423377991,0
53.41481423377991,4
53.41481423377991,0
53.41481423377991,5
53.50955271720886,0
53.50955271720886,7
53.50955271720886,7
53.50955271720886,22
53.50955271720886,26
53.50955271720886,14
53.50955271720886,27
53.50955271720886,17
53.50955271720886,29
53.60765051841736,14
53.60765051841736,26
53.60765051841736,14
53.60765051841736,43
53.60765051841736,6
53.60765051841736,10
53.60765051841736,7
53.60765051841736,16
53.60765051841736,6
53.70193362236023,32
53.70193362236023,10
53.70193362236023,38
53.70193362236023,15
53.70193362236023,18
53.70193362236023,1
53.70193362236023,9
53.7080500125885,0
53.7080500125885,13
53.7080500125885,6
53.801934480667114,0
53.801934480667114,0
53.801934480667114,0
53.801934480667114,0
53.801934480667114,1
53.801934480667114,1
53.801934480667114,0
53.80394101142883,0
53.80394101142883,0
53.89864110946655,0
53.89864110946655,3
53.89864110946655,0
53.89864110946655,12
53.89864110946655,1
53.900646448135376,12
53.900646448135376,18
53.900646448135376,0
53.900646448135376,4
53.900646448135376,0
53.998103857040405,3
53.998103857040405,6
53.998103857040405,0
53.998103857040405,3
53.998103857040405,16
53.998103857040405,10
53.998103857040405,17
53.998103857040405,2
53.998103857040405,16
53.998103857040405,4
54.10498642921448,14
54.10498642921448,4
54.10498642921448,15
54.10498642921448,3
54.10498642921448,21
54.10498642921448,0
54.10498642921448,9
54.10558462142944,3
54.10558462142944,11
54.10558462142944,15
54.20233225822449,33
54.20233225822449,12
54.20233225822449,30
54.20233225822449,1
54.20233225822449,17
54.20233225822449,0
54.20233225822449,9
54.20233225822449,0
54.20233225822449,6
54.20233225822449,3
54.308037519454956,26
54.308037519454956,0
54.308037519454956,9
54.308037519454956,0
54.308037519454956,4
54.308037519454956,1
54.308037519454956,9
54.308037519454956,4
54.308037519454956,0
54.308037519454956,1
54.393982887268066,0
54.393982887268066,0
54.393982887268066,1
54.393982887268066,0
54.393982887268066,3
54.393982887268066,1
54.393982887268066,15
54.393982887268066,5
54.393982887268066,6
54.393982887268066,9
54.50031805038452,1
54.50031805038452,0
54.50031805038452,0
54.50031805038452,0
54.50031805038452,5
54.50031805038452,11
54.50031805038452,2
54.50031805038452,16
54.50031805038452,6
54.58987879753113,22
54.58987879753113,10
54.58987879753113,20
54.58987879753113,6
54.58987879753113,29
54.58987879753113,0
54.58987879753113,22
54.58987879753113,2
54.58987879753113,12
54.69478797912598,11
54.69478797912598,27
54.69478797912598,13
54.69478797912598,25
54.69478797912598,6
54.69478797912598,27
54.69478797912598,5
54.69478797912598,27
54.69478797912598,3
54.69478797912598,9
54.79541206359863,0
54.79541206359863,24
54.79541206359863,8
54.79541206359863,8
54.79541206359863,0
54.79541206359863,3
54.79541206359863,1
54.79541206359863,10
54.79541206359863,0
54.79541206359863,12
54.892279863357544,1
54.892279863357544,3
54.892279863357544,1
54.892279863357544,0
54.892279863357544,0
54.892279863357544,0
54.892279863357544,4
54.892279863357544,22
54.892279863357544,5
54.892279863357544,3
55.00296902656555,2
55.00296902656555,1
55.00296902656555,0
55.00296902656555,0
55.008821964263916,0
55.008821964263916,5
55.008821964263916,9
55.008821964263916,9
55.008821964263916,17
55.008821964263916,8
55.008821964263916,13
55.10874605178833,1
55.10874605178833,4
55.10874605178833,4
55.10874605178833,16
55.10874605178833,6
55.10874605178833,23
55.10874605178833,8
55.10874605178833,15
55.10874605178833,2
55.10874605178833,11
55.210575103759766,12
55.210575103759766,25
55.210575103759766,8
55.210575103759766,35
55.210575103759766,11
55.210575103759766,23
55.210575103759766,1
55.210575103759766,19
55.210575103759766,0
55.210575103759766,6
55.32215404510498,2
55.32215404510498,33
55.32215404510498,14
55.32215404510498,4
55.32215404510498,1
55.32215404510498,6
55.32215404510498,0
55.32215404510498,11
55.32215404510498,0
55.32215404510498,0
55.32215404510498,0
55.41786050796509,0
55.41786050796509,3
55.41786050796509,0
55.41786050796509,0
55.41786050796509,9
55.41786050796509,6
55.41786050796509,10
55.41786050796509,1
55.41786050796509,0
55.41786050796509,2
55.529664754867554,4
55.529664754867554,11
55.529664754867554,4
55.529664754867554,7
55.529664754867554,1
55.529664754867554,14
55.529664754867554,16
55.529664754867554,20
55.529664754867554,16
55.529664754867554,19
55.625285148620605,13
55.625285148620605,20
55.625285148620605,36
55.625285148620605,29
55.625285148620605,7
55.625285148620605,22
55.625285148620605,1
55.625285148620605,22
55.625285148620605,7
55.625285148620605,30
55.625285148620605,16
55.73737549781799,32
55.73737549781799,21
55.73737549781799,2
55.73737549781799,2
55.73737549781799,13
55.73737549781799,1
55.73737549781799,9
55.73737549781799,0
55.73737549781799,37
55.73737549781799,5
55.8481171131134,7
55.8481171131134,0
55.8481171131134,0
55.8481171131134,1
55.8481171131134,10
55.8481171131134,0
55.8481171131134,1
55.8481171131134,1
55.8481171131134,0
55.8481171131134,1
55.95259952545166,9
55.95259952545166,1
55.95259952545166,10
55.95259952545166,8
55.95259952545166,9
55.95259952545166,6
55.95259952545166,0
55.95259952545166,4
55.95259952545166,0
55.95259952545166,3
55.95259952545166,0
56.070260524749756,4
56.070260524749756,11
56.070260524749756,18
56.070260524749756,5
56.070260524749756,27
56.070260524749756,12
56.070260524749756,8
56.070260524749756,16
56.070260524749756,22
56.070260524749756,6
56.070260524749756,31
56.182414293289185,7
56.182414293289185,25
56.182414293289185,20
56.182414293289185,14
56.182414293289185,15
56.182414293289185,39
56.182414293289185,14
56.182414293289185,35
56.182414293289185,6
56.182414293289185,31
56.182414293289185,4
56.192784786224365,28
56.29428696632385,0
56.29428696632385,10
56.29428696632385,2
56.29428696632385,26
56.29428696632385,5
56.29428696632385,12
56.29428696632385,1
56.29428696632385,0
56.29428696632385,0
56.29428696632385,12
56.40137338638306,4
56.40137338638306,0
56.40137338638306,3
56.40137338638306,13
56.40137338638306,5
56.40137338638306,0
56.40137338638306,0
56.40137338638306,7
56.40137338638306,16
56.40137338638306,1
56.40137338638306,0
56.517374992370605,0
56.517374992370605,1
56.517374992370605,4
56.517374992370605,0
56.517374992370605,0
56.517374992370605,3
56.517374992370605,8
56.517374992370605,27
56.517374992370605,12
56.517374992370605,20
56.517374992370605,14
56.613301515579224,7
56.613301515579224,10
56.613301515579224,13
56.613301515579224,15
56.613301515579224,29
56.613301515579224,8
56.613301515579224,10
56.613301515579224,0
56.613301515579224,14
56.613301515579224,5
56.7248752117157,39
56.7248752117157,12
56.7248752117157,31
56.7248752117157,2
56.7248752117157,35
56.7248752117157,5
56.7248752117157,19
56.7248752117157,4
56.7248752117157,6
56.7248752117157,2
56.7248752117157,26
56.837352991104126,1
56.837352991104126,1
56.837352991104126,1
56.837352991104126,4
56.837352991104126,2
56.837352991104126,0
56.837352991104126,2
56.837352991104126,0
56.837352991104126,0
56.837352991104126,1
56.93237805366516,4
56.93237805366516,1
56.93237805366516,14
56.93237805366516,1
56.93237805366516,5
56.93237805366516,17
56.93237805366516,0
56.93237805366516,0
56.93237805366516,5
56.93237805366516,4
57.0280122756958,0
57.0280122756958,11
57.0280122756958,2
57.0280122756958,16
57.0280122756958,4
57.0280122756958,17
57.0280122756958,20
57.0280122756958,11
