Time,EMG
0.7139606475830078,0
0.7139606475830078,0
0.7139606475830078,0
0.7139606475830078,0
0.7139606475830078,0
0.7139606475830078,0
0.7139606475830078,2
0.7139606475830078,5
0.7139606475830078,0
0.7139606475830078,0
0.7139606475830078,2
0.7139606475830078,0
0.7139606475830078,0
0.7139606475830078,0
0.7139606475830078,0
0.7139606475830078,0
0.7139606475830078,0
0.7139606475830078,0
0.7139606475830078,0
0.7139606475830078,0
0.7139606475830078,0
0.7139606475830078,0
0.7139606475830078,0
0.7139606475830078,0
0.7139606475830078,0
0.7139606475830078,0
0.7139606475830078,0
0.7139606475830078,0
0.7139606475830078,0
0.7139606475830078,0
0.7139606475830078,0
0.7139606475830078,0
0.7139606475830078,0
0.7139606475830078,0
0.7139606475830078,0
0.7139606475830078,0
0.7139606475830078,0
0.7139606475830078,0
0.7139606475830078,0
0.7139606475830078,0
0.7139606475830078,0
0.7139606475830078,0
0.7139606475830078,0
0.7139606475830078,0
0.7139606475830078,7
0.7139606475830078,0
0.7139606475830078,0
0.726046085357666,0
0.726046085357666,0
0.726046085357666,0
0.726046085357666,0
0.726046085357666,0
0.726046085357666,0
0.726046085357666,2
0.726046085357666,0
0.726046085357666,6
0.726046085357666,0
0.726046085357666,0
0.726046085357666,3
0.726046085357666,0
0.726046085357666,0
0.726046085357666,0
0.726046085357666,0
0.726046085357666,0
0.726046085357666,5
0.726046085357666,0
0.726046085357666,0
0.726046085357666,4
0.726046085357666,10
0.726046085357666,0
0.726046085357666,0
0.726046085357666,0
0.726046085357666,0
0.726046085357666,1
0.726046085357666,0
0.726046085357666,0
0.726046085357666,14
0.726046085357666,1
0.726046085357666,0
0.726046085357666,0
0.726046085357666,0
0.726046085357666,0
0.726046085357666,1
0.726046085357666,0
0.726046085357666,0
0.726046085357666,0
0.726046085357666,0
0.726046085357666,0
0.726046085357666,1
0.726046085357666,0
0.726046085357666,0
0.726046085357666,1
0.726046085357666,0
0.7299535274505615,0
0.7299535274505615,2
0.7299535274505615,0
0.7299535274505615,1
0.7299535274505615,2
0.7299535274505615,0
0.7299535274505615,1
0.7299535274505615,0
0.7307703495025635,1
0.7307703495025635,4
0.7307703495025635,0
0.7307703495025635,16
0.7307703495025635,0
0.7307703495025635,2
0.7307703495025635,0
0.7307703495025635,5
0.7307703495025635,0
0.7307703495025635,6
0.7307703495025635,0
0.7307703495025635,3
0.7307703495025635,3
0.7307703495025635,0
0.7307703495025635,0
0.7307703495025635,0
0.7307703495025635,5
0.7307703495025635,3
0.7307703495025635,0
1.0452919006347656,4
1.0452919006347656,0
1.0452919006347656,0
1.0452919006347656,0
1.0452919006347656,0
1.0452919006347656,0
1.0452919006347656,0
1.0452919006347656,0
1.0452919006347656,6
1.0452919006347656,0
1.0452919006347656,2
1.0452919006347656,0
1.0452919006347656,6
1.0452919006347656,0
1.0452919006347656,8
1.0452919006347656,1
1.0452919006347656,8
1.0452919006347656,5
1.0452919006347656,6
1.0452919006347656,0
1.0452919006347656,1
1.0452919006347656,1
1.0452919006347656,0
1.0452919006347656,0
1.0452919006347656,0
1.0452919006347656,0
1.0452919006347656,0
1.0452919006347656,3
1.0452919006347656,7
1.0452919006347656,0
1.0452919006347656,11
1.294550895690918,11
1.294550895690918,0
1.294550895690918,14
1.294550895690918,5
1.294550895690918,5
1.294550895690918,0
1.294550895690918,0
1.294550895690918,0
1.294550895690918,0
1.294550895690918,0
1.294550895690918,0
1.294550895690918,3
1.294550895690918,0
1.294550895690918,0
1.294550895690918,0
1.294550895690918,2
1.294550895690918,2
1.294550895690918,2
1.294550895690918,0
1.294550895690918,0
1.294550895690918,0
1.294550895690918,15
1.294550895690918,0
1.294550895690918,0
1.294550895690918,0
1.496154546737671,0
1.496154546737671,0
1.496154546737671,0
1.496154546737671,0
1.496154546737671,0
1.496154546737671,3
1.496154546737671,0
1.496154546737671,4
1.496154546737671,0
1.496154546737671,1
1.496154546737671,4
1.496154546737671,0
1.496154546737671,2
1.496154546737671,0
1.496154546737671,0
1.496154546737671,6
1.496154546737671,0
1.496154546737671,0
1.496154546737671,0
1.496154546737671,1
1.6669719219207764,0
1.6669719219207764,0
1.6669719219207764,15
1.6669719219207764,0
1.6669719219207764,0
1.6669719219207764,0
1.6669719219207764,8
1.6669719219207764,0
1.6669719219207764,0
1.6669719219207764,0
1.6669719219207764,0
1.6669719219207764,8
1.6669719219207764,9
1.6669719219207764,7
1.6669719219207764,3
1.6669719219207764,11
1.6669719219207764,0
1.8108580112457275,14
1.8108580112457275,0
1.8108580112457275,10
1.8108580112457275,0
1.8108580112457275,3
1.8108580112457275,0
1.8108580112457275,0
1.8108580112457275,2
1.8108580112457275,2
1.8108580112457275,59
1.8108580112457275,0
1.8108580112457275,0
1.8108580112457275,0
1.8108580112457275,1
1.906033992767334,0
1.906033992767334,0
1.906033992767334,0
1.906033992767334,0
1.906033992767334,0
1.906033992767334,1
1.906033992767334,0
1.906033992767334,0
1.906033992767334,0
1.906033992767334,0
2.0022494792938232,4
2.0022494792938232,5
2.0022494792938232,16
2.0022494792938232,0
2.0022494792938232,0
2.0022494792938232,0
2.0022494792938232,0
2.0022494792938232,0
2.0022494792938232,0
2.1155054569244385,4
2.1155054569244385,0
2.1155054569244385,0
2.1155054569244385,1
2.1155054569244385,0
2.1155054569244385,0
2.1155054569244385,0
2.1155054569244385,0
2.1155054569244385,0
2.1155054569244385,0
2.208624839782715,4
2.208624839782715,0
2.208624839782715,0
2.208624839782715,4
2.208624839782715,0
2.208624839782715,0
2.208624839782715,11
2.208624839782715,0
2.208624839782715,0
2.208624839782715,0
2.3041772842407227,0
2.3041772842407227,0
2.3041772842407227,0
2.3041772842407227,0
2.319972038269043,0
2.319972038269043,0
2.319972038269043,0
2.319972038269043,0
2.319972038269043,0
2.319972038269043,0
2.4161486625671387,0
2.4161486625671387,0
2.4161486625671387,3
2.4161486625671387,0
2.4161486625671387,0
2.4161486625671387,2
2.4161486625671387,0
2.4161486625671387,1
2.4161486625671387,0
2.4161486625671387,0
2.510781764984131,0
2.510781764984131,0
2.510781764984131,0
2.510781764984131,0
2.510781764984131,0
2.510781764984131,1
2.510781764984131,0
2.510781764984131,0
2.510781764984131,11
2.510781764984131,1
2.6067233085632324,6
2.6067233085632324,1
2.6067233085632324,0
2.6067233085632324,0
2.6067233085632324,0
2.6067233085632324,2
2.6067233085632324,0
2.6067233085632324,2
2.6067233085632324,0
2.6067233085632324,0
2.718775510787964,5
2.718775510787964,0
2.718775510787964,0
2.718775510787964,2
2.718775510787964,0
2.718775510787964,3
2.718775510787964,1
2.718775510787964,0
2.718775510787964,0
2.718775510787964,0
2.813710927963257,0
2.813710927963257,0
2.813710927963257,0
2.813710927963257,0
2.813710927963257,0
2.813710927963257,6
2.813710927963257,0
2.813710927963257,0
2.813710927963257,0
2.813710927963257,3
2.9251554012298584,11
2.9251554012298584,11
2.9251554012298584,0
2.9251554012298584,0
2.9251554012298584,0
2.9251554012298584,1
2.9251554012298584,0
2.9251554012298584,0
2.9251554012298584,5
2.9251554012298584,2
3.024630546569824,0
3.024630546569824,2
3.024630546569824,0
3.0266366004943848,0
3.0266366004943848,0
3.0266366004943848,4
3.0266366004943848,0
3.0266366004943848,15
3.0266366004943848,0
3.0266366004943848,0
3.116326093673706,0
3.116326093673706,1
3.116326093673706,0
3.116326093673706,6
3.116326093673706,0
3.116326093673706,0
3.116326093673706,0
3.116326093673706,4
3.116326093673706,0
3.116326093673706,0
3.227856397628784,11
3.227856397628784,7
3.227856397628784,0
3.227856397628784,1
3.227856397628784,0
3.227856397628784,0
3.227856397628784,4
3.227856397628784,0
3.227856397628784,15
3.227856397628784,2
3.322389841079712,0
3.322389841079712,0
3.322389841079712,0
3.322389841079712,7
3.322389841079712,5
3.322389841079712,7
3.322389841079712,1
3.322389841079712,0
3.322389841079712,0
3.322389841079712,6
3.4174275398254395,4
3.4174275398254395,3
3.4174275398254395,0
3.4174275398254395,0
3.4174275398254395,0
3.4174275398254395,0
3.4174275398254395,0
3.4174275398254395,0
3.4174275398254395,0
3.5255024433135986,0
3.5255024433135986,0
3.5255024433135986,2
3.5255024433135986,3
3.5255024433135986,0
3.5255024433135986,0
3.5255024433135986,0
3.5255024433135986,0
3.5255024433135986,0
3.5255024433135986,1
3.6252760887145996,0
3.6252760887145996,7
3.6252760887145996,0
3.6252760887145996,0
3.6252760887145996,0
3.6252760887145996,0
3.6252760887145996,1
3.6252760887145996,0
3.6252760887145996,0
3.6252760887145996,0
3.7212672233581543,5
3.7212672233581543,0
3.7212672233581543,3
3.7212672233581543,0
3.7212672233581543,0
3.7212672233581543,0
3.7212672233581543,8
3.7212672233581543,3
3.7212672233581543,0
3.7212672233581543,0
3.8318397998809814,0
3.8318397998809814,0
3.8318397998809814,0
3.8318397998809814,0
3.8318397998809814,7
3.8318397998809814,0
3.8318397998809814,0
3.8326220512390137,0
3.8326220512390137,0
3.8326220512390137,0
3.928628921508789,5
3.928628921508789,0
3.928628921508789,0
3.928628921508789,0
3.928628921508789,6
3.928628921508789,0
3.928628921508789,5
3.928628921508789,0
3.928628921508789,5
3.928628921508789,0
4.024418830871582,0
4.024418830871582,1
4.024418830871582,0
4.024418830871582,0
4.024418830871582,0
4.024418830871582,0
4.024418830871582,0
4.024418830871582,0
4.024418830871582,0
4.119872331619263,3
4.119872331619263,15
4.119872331619263,0
4.119872331619263,5
4.119872331619263,1
4.119872331619263,0
4.119872331619263,5
4.119872331619263,0
4.119872331619263,0
4.119872331619263,0
4.214174747467041,0
4.214174747467041,0
4.214174747467041,0
4.214174747467041,3
4.214174747467041,5
4.214174747467041,9
4.214174747467041,2
4.214174747467041,0
4.214174747467041,1
4.307857036590576,2
4.307857036590576,3
4.307857036590576,0
4.307857036590576,1
4.307857036590576,19
4.307857036590576,3
4.307857036590576,0
4.307857036590576,2
4.307857036590576,1
4.409825801849365,1
4.409825801849365,4
4.409825801849365,0
4.409825801849365,0
4.409825801849365,16
4.409825801849365,0
4.409825801849365,0
4.409825801849365,0
4.409825801849365,0
4.409825801849365,0
4.505480766296387,0
4.505480766296387,0
4.505480766296387,0
4.505480766296387,14
4.505480766296387,0
4.505480766296387,0
4.505480766296387,0
4.505480766296387,0
4.505480766296387,8
4.5947043895721436,4
4.5947043895721436,0
4.5947043895721436,0
4.5947043895721436,15
4.5947043895721436,0
4.5947043895721436,0
4.5947043895721436,0
4.5947043895721436,0
4.5947043895721436,2
4.5947043895721436,0
4.69123387336731,16
4.69123387336731,27
4.69123387336731,0
4.69123387336731,0
4.69123387336731,6
4.69123387336731,0
4.69123387336731,0
4.69123387336731,0
4.69123387336731,20
4.785070180892944,0
4.785070180892944,2
4.785070180892944,3
4.785070180892944,1
4.785070180892944,0
4.785070180892944,2
4.785070180892944,7
4.785070180892944,4
4.785070180892944,0
4.785070180892944,0
4.881554365158081,0
4.881554365158081,1
4.881554365158081,0
4.881554365158081,0
4.881554365158081,3
4.881554365158081,0
4.881554365158081,4
4.881554365158081,0
4.881554365158081,0
4.9775331020355225,0
4.9775331020355225,2
4.9775331020355225,1
4.9775331020355225,0
4.9775331020355225,5
4.9775331020355225,7
4.9775331020355225,0
4.9775331020355225,10
4.9775331020355225,0
5.0721824169158936,0
5.0721824169158936,3
5.0721824169158936,7
5.0721824169158936,1
5.0721824169158936,1
5.0721824169158936,5
5.0721824169158936,0
5.0721824169158936,0
5.0721824169158936,0
5.0721824169158936,0
5.169360399246216,30
5.169360399246216,0
5.169360399246216,0
5.169360399246216,0
5.169360399246216,0
5.169360399246216,0
5.169360399246216,0
5.169360399246216,0
5.169360399246216,0
5.262629508972168,1
5.262629508972168,7
5.262629508972168,0
5.262629508972168,11
5.262629508972168,9
5.262629508972168,4
5.262629508972168,0
5.262629508972168,0
5.262629508972168,2
5.262629508972168,0
5.35741662979126,0
5.35741662979126,0
5.35741662979126,0
5.35741662979126,11
5.35741662979126,6
5.35741662979126,0
5.35741662979126,9
5.35741662979126,7
5.35741662979126,0
5.453174591064453,0
5.453174591064453,0
5.453174591064453,0
5.453174591064453,4
5.453174591064453,0
5.453174591064453,0
5.453174591064453,0
5.453174591064453,5
5.453174591064453,3
5.453174591064453,8
5.560382843017578,24
5.560382843017578,1
5.560382843017578,0
5.560382843017578,0
5.560382843017578,0
5.560382843017578,2
5.560382843017578,0
5.560382843017578,0
5.560382843017578,0
5.659229040145874,0
5.659229040145874,1
5.659229040145874,0
5.659229040145874,0
5.659229040145874,2
5.659229040145874,0
5.659229040145874,0
5.659229040145874,0
5.659229040145874,0
5.659229040145874,0
5.754809141159058,4
5.754809141159058,0
5.754809141159058,0
5.754809141159058,0
5.754809141159058,0
5.754809141159058,0
5.754809141159058,0
5.754809141159058,0
5.754809141159058,0
5.851718425750732,0
5.851718425750732,4
5.851718425750732,16
5.851718425750732,0
5.851718425750732,1
5.851718425750732,0
5.851718425750732,0
5.851718425750732,0
5.851718425750732,0
5.851718425750732,0
5.945140600204468,0
5.945140600204468,11
5.945140600204468,0
5.945140600204468,1
5.945140600204468,0
5.945140600204468,0
5.945140600204468,0
5.945140600204468,0
5.945140600204468,0
6.040440797805786,0
6.040440797805786,0
6.040440797805786,9
6.040440797805786,15
6.040440797805786,0
6.040440797805786,0
6.040440797805786,0
6.040440797805786,0
6.040440797805786,0
6.040440797805786,0
6.1356072425842285,0
6.1356072425842285,3
6.1356072425842285,0
6.1356072425842285,0
6.1356072425842285,0
6.1356072425842285,0
6.1356072425842285,0
6.1356072425842285,0
6.1356072425842285,0
6.230863094329834,1
6.230863094329834,7
6.230863094329834,3
6.230863094329834,10
6.230863094329834,0
6.230863094329834,0
6.230863094329834,0
6.230863094329834,0
6.230863094329834,0
6.230863094329834,0
6.326270580291748,0
6.326270580291748,0
6.326270580291748,0
6.326270580291748,0
6.326270580291748,0
6.326270580291748,0
6.326270580291748,0
6.326270580291748,0
6.326270580291748,0
6.42116117477417,0
6.42116117477417,0
6.42116117477417,0
6.42116117477417,0
6.42116117477417,0
6.42116117477417,0
6.42116117477417,3
6.42116117477417,0
6.42116117477417,0
6.517314672470093,0
6.517314672470093,0
6.517314672470093,0
6.517314672470093,4
6.517314672470093,0
6.517314672470093,0
6.517314672470093,0
6.517314672470093,0
6.517314672470093,0
6.517314672470093,0
6.611606597900391,0
6.611606597900391,0
6.611606597900391,0
6.611606597900391,0
6.611606597900391,0
6.611606597900391,0
6.611606597900391,0
6.611606597900391,0
6.611606597900391,0
6.713296413421631,0
6.713296413421631,0
6.713296413421631,0
6.713296413421631,0
6.713296413421631,0
6.713296413421631,2
6.713296413421631,2
6.713296413421631,0
6.713296413421631,5
6.803274631500244,0
6.803274631500244,0
6.803274631500244,0
6.803274631500244,0
6.803274631500244,4
6.803274631500244,0
6.803274631500244,0
6.803274631500244,7
6.803274631500244,0
6.803274631500244,0
6.906903266906738,0
6.906903266906738,0
6.906903266906738,0
6.906903266906738,1
6.906903266906738,3
6.906903266906738,0
6.906903266906738,0
6.906903266906738,0
6.906903266906738,1
6.994146823883057,0
6.994146823883057,0
6.994146823883057,3
6.994146823883057,13
6.994146823883057,0
6.994146823883057,6
6.994146823883057,5
6.994146823883057,4
6.994146823883057,0
6.994146823883057,0
7.089354515075684,0
7.089354515075684,0
7.089354515075684,0
7.089354515075684,0
7.089354515075684,9
7.089354515075684,2
7.089354515075684,9
7.089354515075684,0
7.089354515075684,7
7.194468975067139,0
7.194468975067139,35
7.194468975067139,27
7.194468975067139,1
7.194468975067139,1
7.194468975067139,0
7.194468975067139,0
7.194468975067139,6
7.194468975067139,4
7.194468975067139,42
7.280628442764282,26
7.280628442764282,2
7.280628442764282,12
7.280628442764282,16
7.280628442764282,17
7.280628442764282,3
7.280628442764282,52
7.280628442764282,26
7.280628442764282,34
7.385969877243042,22
7.385969877243042,3
7.385969877243042,5
7.385969877243042,76
7.385969877243042,29
7.385969877243042,43
7.385969877243042,7
7.385969877243042,1
7.385969877243042,134
7.483245372772217,222
7.483245372772217,0
7.483245372772217,4
7.483245372772217,8
7.483245372772217,12
7.483245372772217,262
7.483245372772217,2
7.483245372772217,193
7.483245372772217,39
7.483245372772217,30
7.566842317581177,122
7.566842317581177,477
7.566842317581177,374
7.566842317581177,11
7.566842317581177,46
7.566842317581177,299
7.566842317581177,186
7.566842317581177,758
7.566842317581177,19
7.678532600402832,72
7.678532600402832,237
7.678532600402832,95
7.678532600402832,548
7.678532600402832,171
7.678532600402832,237
7.678532600402832,37
7.678532600402832,17
7.678532600402832,123
7.678532600402832,264
7.678532600402832,19
7.789544105529785,367
7.789544105529785,457
7.789544105529785,692
7.789544105529785,170
7.789544105529785,390
7.789544105529785,310
7.789544105529785,365
7.789544105529785,199
7.789544105529785,39
7.789544105529785,50
7.884943723678589,107
7.884943723678589,546
7.884943723678589,109
7.884943723678589,767
7.884943723678589,97
7.884943723678589,61
7.884943723678589,823
7.884943723678589,205
7.884943723678589,640
7.884943723678589,39
7.996517658233643,58
7.996517658233643,114
7.996517658233643,22
7.996517658233643,449
7.996517658233643,102
7.996517658233643,8
7.996517658233643,74
7.996517658233643,225
7.996517658233643,51
7.996517658233643,4
8.10043454170227,125
8.10043454170227,233
8.10043454170227,373
8.10043454170227,963
8.10043454170227,771
8.10043454170227,134
8.10043454170227,79
8.10043454170227,113
8.10043454170227,170
8.10043454170227,788
8.188176393508911,291
8.188176393508911,92
8.188176393508911,213
8.188176393508911,317
8.188176393508911,551
8.188176393508911,623
8.188176393508911,48
8.188176393508911,102
8.188176393508911,154
8.188176393508911,348
8.299992799758911,789
8.299992799758911,299
8.299992799758911,41
8.299992799758911,118
8.299992799758911,412
8.299992799758911,245
8.299992799758911,647
8.299992799758911,49
8.299992799758911,115
8.299992799758911,221
8.395782232284546,186
8.395782232284546,37
8.395782232284546,19
8.395782232284546,55
8.395782232284546,178
8.395782232284546,198
8.395782232284546,308
8.395782232284546,295
8.395782232284546,202
8.498279333114624,36
8.498279333114624,104
8.498279333114624,163
8.498279333114624,161
8.498279333114624,43
8.498279333114624,132
8.498279333114624,157
8.498279333114624,25
8.498279333114624,390
8.498279333114624,178
8.596609354019165,16
8.596609354019165,107
8.596609354019165,1
8.596609354019165,662
8.596609354019165,52
8.596609354019165,738
8.596609354019165,54
8.596609354019165,31
8.596609354019165,275
8.596609354019165,59
8.683977603912354,32
8.683977603912354,93
8.683977603912354,20
8.683977603912354,326
8.683977603912354,0
8.683977603912354,541
8.683977603912354,320
8.694514751434326,68
8.694514751434326,41
8.779512643814087,78
8.779512643814087,403
8.779512643814087,357
8.779512643814087,104
8.779512643814087,242
8.779512643814087,124
8.779512643814087,33
8.779512643814087,2
8.779512643814087,419
8.8739333152771,232
8.8739333152771,96
8.8739333152771,96
8.8739333152771,309
8.8739333152771,39
8.8739333152771,461
8.8739333152771,15
8.8739333152771,79
8.8739333152771,0
8.8739333152771,26
8.97036075592041,248
8.97036075592041,703
8.97036075592041,8
8.97036075592041,113
8.97036075592041,208
8.97036075592041,322
8.97036075592041,131
8.97036075592041,5
8.97036075592041,97
9.0725257396698,2
9.0725257396698,79
9.0725257396698,480
9.0725257396698,101
9.0725257396698,8
9.0725257396698,23
9.0725257396698,83
9.0725257396698,789
9.0725257396698,22
9.1724271774292,15
9.1724271774292,56
9.1724271774292,210
9.1724271774292,376
9.17443299293518,23
9.17443299293518,0
9.17443299293518,50
9.17443299293518,1023
9.17443299293518,85
9.17443299293518,0
9.275249004364014,0
9.275249004364014,299
9.275249004364014,98
9.275249004364014,22
9.275249004364014,81
9.275249004364014,730
9.275249004364014,31
9.275249004364014,63
9.275249004364014,14
9.275249004364014,51
9.367233753204346,410
9.367233753204346,19
9.367233753204346,14
9.367233753204346,11
9.367233753204346,102
9.367233753204346,0
9.367233753204346,98
9.367233753204346,66
9.367233753204346,189
9.463853120803833,39
9.463853120803833,163
9.463853120803833,840
9.463853120803833,0
9.463853120803833,33
9.463853120803833,12
9.463853120803833,26
9.463853120803833,34
9.463853120803833,62
9.463853120803833,68
9.557409048080444,46
9.557409048080444,7
9.573235988616943,26
9.573235988616943,51
9.573235988616943,0
9.573235988616943,14
9.573235988616943,19
9.573235988616943,7
9.573235988616943,47
9.573235988616943,94
9.668728590011597,30
9.668728590011597,53
9.668728590011597,15
9.668728590011597,50
9.668728590011597,149
9.668728590011597,0
9.668728590011597,74
9.668728590011597,7
9.668728590011597,21
9.668728590011597,2
9.764090776443481,2
9.764090776443481,77
9.764090776443481,8
9.764090776443481,24
9.764090776443481,0
9.764090776443481,14
9.764090776443481,9
9.764090776443481,6
9.764090776443481,24
9.764090776443481,23
9.859749794006348,43
9.859749794006348,15
9.859749794006348,4
9.859749794006348,5
9.859749794006348,20
9.859749794006348,0
9.859749794006348,0
9.859749794006348,30
9.859749794006348,12
9.971362113952637,0
9.971362113952637,21
9.971362113952637,80
9.971362113952637,4
9.971362113952637,22
9.971362113952637,1
9.971362113952637,0
9.971362113952637,4
9.971362113952637,8
9.971362113952637,0
10.066843271255493,0
10.066843271255493,2
10.066843271255493,0
10.066843271255493,15
10.066843271255493,61
10.066843271255493,7
10.066843271255493,7
10.066843271255493,2
10.066843271255493,17
10.066843271255493,15
10.161893129348755,12
10.161893129348755,3
10.161893129348755,0
10.161893129348755,19
10.161893129348755,0
10.161893129348755,2
10.161893129348755,0
10.161893129348755,0
10.161893129348755,17
10.256507873535156,0
10.256507873535156,2
10.256507873535156,18
10.256507873535156,14
10.256507873535156,0
10.256507873535156,8
10.256507873535156,0
10.256507873535156,10
10.256507873535156,8
10.256507873535156,7
10.352506875991821,0
10.352506875991821,0
10.352506875991821,2
10.352506875991821,1
10.352506875991821,3
10.352506875991821,1
10.352506875991821,4
10.352506875991821,0
10.352506875991821,0
10.44664716720581,0
10.44664716720581,0
10.44664716720581,0
10.44664716720581,30
10.44664716720581,0
10.44664716720581,1
10.44664716720581,0
10.448153018951416,0
10.448153018951416,0
10.538843870162964,2
10.538843870162964,1
10.538843870162964,10
10.538843870162964,6
10.538843870162964,0
10.538843870162964,0
10.538843870162964,3
10.538843870162964,5
10.538843870162964,2
10.638746976852417,10
10.638746976852417,2
10.638746976852417,0
10.638746976852417,0
10.638746976852417,10
10.638746976852417,31
10.638746976852417,0
10.638746976852417,6
10.638746976852417,0
10.638746976852417,3
10.738057136535645,0
10.738057136535645,3
10.738057136535645,0
10.738057136535645,0
10.738057136535645,0
10.73962140083313,0
10.73962140083313,0
10.73962140083313,4
10.73962140083313,2
10.73962140083313,1
10.832318782806396,2
10.832318782806396,0
10.832318782806396,3
10.832318782806396,0
10.832318782806396,0
10.832318782806396,0
10.832318782806396,0
10.832318782806396,3
10.832318782806396,1
10.935646772384644,5
10.935646772384644,0
10.935646772384644,6
10.935646772384644,0
10.935646772384644,0
10.935646772384644,0
10.935646772384644,0
10.935646772384644,0
10.935646772384644,0
10.935646772384644,18
11.031612396240234,0
11.031612396240234,0
11.031612396240234,0
11.031612396240234,0
11.031612396240234,0
11.031612396240234,0
11.031612396240234,0
11.031612396240234,0
11.031612396240234,0
11.117217540740967,1
11.117217540740967,0
11.117217540740967,0
11.117217540740967,3
11.117217540740967,0
11.117217540740967,20
11.117217540740967,0
11.117217540740967,0
11.117217540740967,0
11.117217540740967,5
11.224830627441406,0
11.224830627441406,0
11.224830627441406,0
11.224830627441406,0
11.224830627441406,0
11.224830627441406,0
11.224830627441406,13
11.224830627441406,0
11.224830627441406,8
11.308421611785889,0
11.308421611785889,0
11.308421611785889,0
11.308421611785889,0
11.308421611785889,10
11.308421611785889,0
11.308421611785889,2
11.308421611785889,0
11.308421611785889,4
11.308421611785889,8
11.403562068939209,5
11.403562068939209,0
11.403562068939209,0
11.403562068939209,0
11.403562068939209,1
11.403562068939209,7
11.403562068939209,1
11.403562068939209,0
11.403562068939209,3
11.49903416633606,15
11.49903416633606,13
11.49903416633606,4
11.49903416633606,1
11.49903416633606,0
11.49903416633606,0
11.49903416633606,0
11.49903416633606,0
11.49903416633606,1
11.49903416633606,0
11.610684871673584,0
11.610684871673584,0
11.610684871673584,0
11.610684871673584,5
11.610684871673584,12
11.610684871673584,4
11.610684871673584,4
11.610684871673584,0
11.610684871673584,11
11.610684871673584,4
11.70614242553711,2
11.70614242553711,3
11.70614242553711,0
11.70614242553711,0
11.70614242553711,4
11.70614242553711,0
11.70614242553711,3
11.70614242553711,0
11.70614242553711,8
11.70614242553711,0
11.817456483840942,0
11.817456483840942,0
11.817456483840942,1
11.817456483840942,0
11.817456483840942,8
11.817456483840942,0
11.817456483840942,6
11.817456483840942,3
11.817456483840942,4
11.817456483840942,1
11.913617610931396,0
11.913617610931396,0
11.913617610931396,0
11.913617610931396,0
11.913617610931396,0
11.913617610931396,3
11.913617610931396,0
11.913617610931396,3
11.913617610931396,0
11.913617610931396,0
12.024559497833252,0
12.024559497833252,19
12.024559497833252,0
12.024559497833252,0
12.024559497833252,6
12.024559497833252,0
12.025068521499634,0
12.025068521499634,2
12.025068521499634,21
12.025068521499634,3
12.113058805465698,0
12.113058805465698,0
12.113058805465698,0
12.113058805465698,0
12.113058805465698,0
12.113058805465698,0
12.113058805465698,1
12.113058805465698,0
12.113058805465698,2
12.198699951171875,8
12.198699951171875,0
12.198699951171875,8
12.198699951171875,0
12.198699951171875,0
12.198699951171875,5
12.198699951171875,3
12.198699951171875,1
12.198699951171875,0
12.198699951171875,0
12.294093132019043,0
12.294093132019043,0
12.294093132019043,0
12.294093132019043,1
12.294093132019043,8
12.294093132019043,0
12.294093132019043,0
12.294093132019043,0
12.294093132019043,0
12.395153760910034,0
12.395153760910034,3
12.395153760910034,0
12.395153760910034,0
12.395153760910034,0
12.404872179031372,0
12.404872179031372,2
12.404872179031372,0
12.404872179031372,0
12.498595237731934,2
12.498595237731934,0
12.498595237731934,0
12.500343322753906,2
12.500343322753906,3
12.500343322753906,0
12.500343322753906,1
12.500343322753906,3
12.500343322753906,0
12.500343322753906,0
12.590554475784302,0
12.590554475784302,2
12.595656633377075,0
12.595656633377075,6
12.595656633377075,1
12.595656633377075,0
12.595656633377075,4
12.595656633377075,0
12.595656633377075,11
12.686177253723145,1
12.686177253723145,2
12.691233158111572,4
12.691233158111572,0
12.691233158111572,0
12.691233158111572,0
12.691233158111572,0
12.691233158111572,7
12.691233158111572,0
12.691233158111572,0
12.786872386932373,0
12.786872386932373,0
12.786872386932373,4
12.786872386932373,0
12.786872386932373,0
12.786872386932373,0
12.786872386932373,0
12.786872386932373,0
12.786872386932373,0
12.868074655532837,0
12.868074655532837,0
12.868074655532837,2
12.868074655532837,10
12.868074655532837,2
12.868074655532837,0
12.868074655532837,2
12.868074655532837,1
12.868074655532837,1
12.961789608001709,0
12.961789608001709,0
12.961789608001709,0
12.961789608001709,0
12.961789608001709,5
12.961789608001709,6
12.961789608001709,4
12.961789608001709,0
12.961789608001709,0
12.961789608001709,0
13.073694705963135,20
13.073694705963135,1
13.073694705963135,0
13.073694705963135,1
13.073694705963135,0
13.073694705963135,0
13.073694705963135,0
13.073694705963135,0
13.073694705963135,1
13.170444011688232,0
13.170444011688232,0
13.170444011688232,0
13.170444011688232,0
13.170444011688232,0
13.170444011688232,0
13.170444011688232,0
13.170444011688232,0
13.170444011688232,0
13.170444011688232,0
13.26521348953247,0
13.26521348953247,0
13.26521348953247,0
13.26521348953247,8
13.26521348953247,1
13.26521348953247,0
13.26521348953247,0
13.26521348953247,0
13.26521348953247,0
13.359662532806396,0
13.359662532806396,0
13.359662532806396,0
13.359662532806396,0
13.359662532806396,0
13.359662532806396,0
13.359662532806396,0
13.359662532806396,1
13.359662532806396,0
13.454376220703125,0
13.454376220703125,2
13.454376220703125,0
13.454376220703125,0
13.454376220703125,0
13.454376220703125,0
13.454376220703125,1
13.454376220703125,0
13.454376220703125,0
13.454376220703125,0
13.550751209259033,0
13.550751209259033,0
13.550751209259033,0
13.550751209259033,4
13.550751209259033,0
13.550751209259033,0
13.550751209259033,0
13.550751209259033,4
13.550751209259033,0
13.646049737930298,7
13.646049737930298,0
13.646049737930298,0
13.646049737930298,0
13.646049737930298,0
13.646049737930298,0
13.646049737930298,0
13.646556854248047,0
13.646556854248047,0
13.740282535552979,1
13.740282535552979,3
13.740282535552979,0
13.740282535552979,0
13.740282535552979,0
13.740282535552979,0
13.740282535552979,5
13.740282535552979,0
13.740282535552979,5
13.740282535552979,0
13.831185102462769,0
13.831185102462769,3
13.831185102462769,0
13.831185102462769,5
13.831185102462769,5
13.831185102462769,2
13.831185102462769,0
13.831185102462769,24
13.831185102462769,0
13.916370391845703,0
13.916370391845703,0
13.916370391845703,0
13.916370391845703,0
13.916370391845703,0
13.916370391845703,0
13.916370391845703,1
13.916370391845703,0
13.916370391845703,0
14.011752843856812,0
14.011752843856812,0
14.011752843856812,0
14.011752843856812,0
14.011752843856812,0
14.011752843856812,0
14.011752843856812,1
14.011752843856812,3
14.011752843856812,1
14.011752843856812,6
14.107469320297241,0
14.107469320297241,3
14.107469320297241,0
14.107469320297241,0
14.107469320297241,0
14.107469320297241,0
14.107469320297241,0
14.107469320297241,0
14.107469320297241,0
14.203495740890503,1
14.203495740890503,0
14.203495740890503,3
14.203495740890503,2
14.203495740890503,0
14.203495740890503,18
14.203495740890503,7
14.203495740890503,0
14.203495740890503,5
14.299643993377686,0
14.299643993377686,0
14.299643993377686,0
14.299643993377686,0
14.299643993377686,0
14.299643993377686,0
14.299643993377686,24
14.299643993377686,0
14.299643993377686,0
14.299643993377686,0
14.394847393035889,0
14.394847393035889,0
14.394847393035889,4
14.394847393035889,0
14.394847393035889,0
14.394847393035889,0
14.394847393035889,0
14.394847393035889,1
14.394847393035889,8
14.489920139312744,0
14.489920139312744,0
14.489920139312744,0
14.489920139312744,0
14.489920139312744,1
14.489920139312744,0
14.489920139312744,0
14.489920139312744,8
14.489920139312744,0
14.585495948791504,0
14.585495948791504,0
14.585495948791504,0
14.585495948791504,0
14.585495948791504,0
14.585495948791504,2
14.585495948791504,1
14.585495948791504,0
14.585495948791504,0
14.585495948791504,0
14.68193244934082,0
14.68193244934082,0
14.68193244934082,1
14.68193244934082,0
14.68193244934082,0
14.68193244934082,0
14.68193244934082,3
14.68193244934082,6
14.68193244934082,0
14.778246402740479,0
14.778246402740479,0
14.778246402740479,0
14.778246402740479,1
14.778246402740479,0
14.778246402740479,0
14.778246402740479,9
14.778246402740479,0
14.778246402740479,0
14.875337362289429,3
14.875337362289429,0
14.875337362289429,1
14.875337362289429,5
14.875337362289429,0
14.875337362289429,0
14.875337362289429,24
14.875337362289429,0
14.875337362289429,0
14.875337362289429,0
14.969581365585327,0
14.969581365585327,0
14.969581365585327,0
14.969581365585327,3
14.969581365585327,0
14.969581365585327,0
14.969581365585327,0
14.969581365585327,1
14.969581365585327,0
15.064878940582275,0
15.064878940582275,0
15.064878940582275,3
15.064878940582275,0
15.064878940582275,6
15.064878940582275,0
15.064878940582275,0
15.064878940582275,6
15.064878940582275,1
15.064878940582275,15
15.1604905128479,2
15.1604905128479,0
15.1604905128479,0
15.1604905128479,0
15.1604905128479,0
15.1604905128479,0
15.1604905128479,4
15.1604905128479,5
15.1604905128479,8
15.25589895248413,2
15.25589895248413,0
15.25589895248413,0
15.25589895248413,0
15.25589895248413,0
15.25589895248413,0
15.25589895248413,0
15.25589895248413,4
15.25589895248413,0
15.351800918579102,0
15.351800918579102,0
15.351800918579102,0
15.351800918579102,1
15.351800918579102,1
15.351800918579102,0
15.351800918579102,0
15.351800918579102,2
15.351800918579102,3
15.351800918579102,0
15.447302341461182,15
15.447302341461182,0
15.447302341461182,0
15.447302341461182,0
15.447302341461182,0
15.447302341461182,0
15.447302341461182,0
15.447302341461182,0
15.447302341461182,0
15.542896747589111,0
15.542896747589111,0
15.542896747589111,0
15.542896747589111,0
15.542896747589111,0
15.542896747589111,0
15.542896747589111,1
15.542896747589111,0
15.542896747589111,0
15.638684272766113,1
15.638684272766113,0
15.638684272766113,3
15.638684272766113,0
15.638684272766113,0
15.638684272766113,5
15.638684272766113,7
15.638684272766113,0
15.638684272766113,5
15.638684272766113,0
15.734044313430786,0
15.734044313430786,0
15.734044313430786,0
15.734044313430786,4
15.734044313430786,15
15.734044313430786,5
15.734044313430786,0
15.734044313430786,0
15.734044313430786,2
15.813952684402466,0
15.813952684402466,0
15.813952684402466,0
15.813952684402466,0
15.813952684402466,0
15.813952684402466,0
15.813952684402466,0
15.813952684402466,0
15.813952684402466,0
15.910157680511475,0
15.910157680511475,0
15.910157680511475,0
15.910157680511475,0
15.910157680511475,96
15.910157680511475,3
15.910157680511475,0
15.910157680511475,0
15.910157680511475,0
16.006203413009644,0
16.006203413009644,1
16.006203413009644,5
16.006203413009644,5
16.006203413009644,7
16.006203413009644,0
16.006203413009644,1
16.006203413009644,0
16.006203413009644,0
16.006203413009644,0
16.101614475250244,0
16.101614475250244,0
16.101614475250244,1
16.101614475250244,0
16.101614475250244,0
16.101614475250244,0
16.101614475250244,13
16.101614475250244,0
16.101614475250244,3
16.213115453720093,0
16.213115453720093,0
16.213115453720093,1
16.213115453720093,2
16.213115453720093,6
16.213115453720093,0
16.213115453720093,2
16.213115453720093,0
16.213115453720093,5
16.213115453720093,0
16.308918476104736,71
16.308918476104736,0
16.308918476104736,7
16.308918476104736,3
16.308918476104736,0
16.308918476104736,5
16.308918476104736,4
16.308918476104736,25
16.308918476104736,0
16.38845992088318,5
16.38845992088318,0
16.38845992088318,2
16.38845992088318,65
16.38845992088318,5
16.38845992088318,7
16.404249906539917,11
16.404249906539917,1
16.404249906539917,23
16.483929872512817,58
16.483929872512817,21
16.483929872512817,6
16.483929872512817,10
16.483929872512817,12
16.483929872512817,0
16.483929872512817,1
16.483929872512817,132
16.483929872512817,4
16.483929872512817,4
16.59012246131897,6
16.59012246131897,0
16.59012246131897,27
16.59012246131897,27
16.59012246131897,8
16.59012246131897,2
16.59012246131897,19
16.59012246131897,84
16.59012246131897,32
16.687329530715942,32
16.687329530715942,0
16.687329530715942,0
16.687329530715942,2
16.687329530715942,20
16.687329530715942,42
16.687329530715942,0
16.687329530715942,0
16.687329530715942,0
16.687329530715942,2
16.78204846382141,38
16.78204846382141,10
16.78204846382141,0
16.78204846382141,10
16.78204846382141,33
16.78204846382141,0
16.78204846382141,3
16.78204846382141,19
16.78204846382141,20
16.884779453277588,12
16.884779453277588,0
16.884779453277588,29
16.884779453277588,9
16.884779453277588,3
16.884779453277588,1
16.884779453277588,6
16.884779453277588,0
16.884779453277588,22
16.884779453277588,38
16.98011350631714,37
16.98011350631714,27
16.98011350631714,18
16.98011350631714,7
16.98011350631714,5
16.98011350631714,11
16.98011350631714,2
16.98011350631714,0
16.98011350631714,0
16.98011350631714,1
17.076194286346436,5
17.076194286346436,1
17.076194286346436,4
17.076194286346436,2
17.076194286346436,2
17.076194286346436,0
17.076194286346436,0
17.076194286346436,0
17.076194286346436,2
17.18181586265564,0
17.18181586265564,0
17.18181586265564,5
17.18181586265564,0
17.18181586265564,0
17.18181586265564,3
17.18181586265564,0
17.18181586265564,3
17.18181586265564,3
17.18181586265564,0
17.283546447753906,20
17.283546447753906,4
17.283546447753906,3
17.283546447753906,14
17.283546447753906,0
17.283546447753906,0
17.283546447753906,1
17.283546447753906,8
17.283546447753906,0
17.283546447753906,16
17.378247022628784,55
17.378247022628784,25
17.378247022628784,60
17.378247022628784,370
17.378247022628784,4
17.378247022628784,15
17.378247022628784,27
17.378247022628784,15
17.378247022628784,260
17.47374200820923,636
17.47374200820923,3
17.47374200820923,14
17.47374200820923,47
17.47374200820923,339
17.47374200820923,324
17.47374200820923,69
17.47374200820923,145
17.47374200820923,141
17.47374200820923,118
17.57036542892456,1023
17.57036542892456,272
17.57036542892456,776
17.57036542892456,49
17.57036542892456,16
17.57036542892456,46
17.57036542892456,511
17.57036542892456,284
17.57036542892456,138
17.664327144622803,0
17.664327144622803,168
17.664327144622803,436
17.664327144622803,230
17.664327144622803,245
17.664327144622803,322
17.664327144622803,66
17.664327144622803,90
17.664327144622803,399
17.76030659675598,543
17.76030659675598,287
17.76030659675598,70
17.76030659675598,42
17.76030659675598,135
17.76030659675598,686
17.76030659675598,1023
17.76030659675598,37
17.76030659675598,673
17.76030659675598,114
17.85571026802063,3
17.85571026802063,601
17.85571026802063,699
17.85571026802063,153
17.85571026802063,16
17.85571026802063,213
17.85571026802063,676
17.85571026802063,74
17.85571026802063,57
17.85571026802063,515
17.967813730239868,320
17.967813730239868,245
17.967813730239868,66
17.967813730239868,190
17.967813730239868,93
17.967813730239868,414
17.967813730239868,246
17.967813730239868,101
17.967813730239868,685
17.967813730239868,86
18.063055992126465,31
18.063055992126465,245
18.063055992126465,300
18.063055992126465,55
18.063055992126465,35
18.063055992126465,238
18.063055992126465,342
18.063055992126465,6
18.063055992126465,107
18.063055992126465,129
18.174834966659546,260
18.174834966659546,156
18.174834966659546,608
18.174834966659546,175
18.174834966659546,109
18.174834966659546,192
18.174834966659546,711
18.174834966659546,132
18.174834966659546,124
18.174834966659546,286
18.270905256271362,6
18.270905256271362,81
18.270905256271362,292
18.270905256271362,94
18.270905256271362,13
18.270905256271362,15
18.270905256271362,95
18.270905256271362,479
18.270905256271362,97
18.270905256271362,457
18.365684032440186,98
18.365684032440186,7
18.365684032440186,42
18.365684032440186,155
18.365684032440186,37
18.365684032440186,179
18.365684032440186,219
18.365684032440186,229
18.365684032440186,105
18.461557149887085,161
18.461557149887085,8
18.461557149887085,48
18.461557149887085,20
18.461557149887085,324
18.461557149887085,170
18.461557149887085,638
18.461557149887085,261
18.461557149887085,60
18.461557149887085,21
18.55695343017578,59
18.55695343017578,21
18.55695343017578,4
18.55695343017578,16
18.55695343017578,58
18.55695343017578,13
18.55695343017578,56
18.55695343017578,259
18.55695343017578,247
18.652886152267456,286
18.652886152267456,172
18.652886152267456,52
18.652886152267456,255
18.652886152267456,214
18.652886152267456,216
18.652886152267456,81
18.652886152267456,302
18.652886152267456,115
18.7488956451416,145
18.7488956451416,356
18.7488956451416,52
18.7488956451416,301
18.7488956451416,237
18.7488956451416,45
18.7488956451416,127
18.7488956451416,101
18.7488956451416,0
18.84479069709778,51
18.84479069709778,74
18.84479069709778,343
18.84479069709778,388
18.84479069709778,145
18.84479069709778,406
18.84479069709778,134
18.84479069709778,19
18.84479069709778,140
18.84479069709778,174
18.84479069709778,218
18.956222534179688,136
18.956222534179688,161
18.956222534179688,293
18.956222534179688,317
18.956222534179688,109
18.956222534179688,224
18.956222534179688,33
18.956222534179688,44
18.956222534179688,188
18.956222534179688,251
19.068304538726807,23
19.068304538726807,481
19.068304538726807,22
19.068304538726807,104
19.068304538726807,338
19.068304538726807,131
19.068304538726807,203
19.068304538726807,137
19.068304538726807,159
19.068304538726807,135
19.163681507110596,351
19.163681507110596,283
19.163681507110596,286
19.163681507110596,189
19.163681507110596,98
19.163681507110596,241
19.163681507110596,17
19.163681507110596,162
19.163681507110596,2
19.163681507110596,134
19.276020050048828,56
19.276020050048828,28
19.276020050048828,33
19.276020050048828,191
19.276020050048828,44
19.276020050048828,77
19.276020050048828,183
19.276020050048828,99
19.276020050048828,248
19.276020050048828,190
19.276020050048828,15
19.371267080307007,271
19.381381273269653,78
19.381381273269653,80
19.381381273269653,7
19.381381273269653,169
19.381381273269653,22
19.381381273269653,648
19.381381273269653,0
19.381381273269653,50
19.381381273269653,44
19.48358917236328,20
19.48358917236328,75
19.48358917236328,68
19.48358917236328,93
19.48358917236328,290
19.48358917236328,64
19.48358917236328,30
19.48358917236328,1
19.48358917236328,5
19.48358917236328,18
19.579910278320312,178
19.579910278320312,83
19.579910278320312,78
19.579910278320312,203
19.579910278320312,2
19.579910278320312,147
19.579910278320312,89
19.579910278320312,120
19.579910278320312,1
19.579910278320312,190
19.69058108329773,141
19.69058108329773,396
19.69058108329773,365
19.69058108329773,3
19.69058108329773,82
19.69058108329773,21
19.69058108329773,1023
19.69058108329773,44
19.69058108329773,79
19.69058108329773,263
19.78574228286743,153
19.78574228286743,5
19.78574228286743,98
19.78574228286743,24
19.78574228286743,175
19.78574228286743,470
19.78574228286743,10
19.78574228286743,6
19.78574228286743,445
19.78574228286743,2
19.89294958114624,365
19.89294958114624,5
19.89294958114624,26
19.89294958114624,64
19.89294958114624,408
19.89294958114624,27
19.89294958114624,150
19.89294958114624,44
19.89294958114624,340
19.89294958114624,32
19.988659858703613,10
19.988659858703613,93
19.988659858703613,143
19.988659858703613,104
19.988659858703613,293
19.988659858703613,69
19.988659858703613,240
19.988659858703613,179
19.988659858703613,119
20.089292764663696,115
20.089292764663696,225
20.089292764663696,149
20.089292764663696,5
20.089292764663696,5
20.089292764663696,192
20.089292764663696,41
20.089292764663696,16
20.089292764663696,44
20.089292764663696,96
20.185251235961914,48
20.185251235961914,44
20.185251235961914,202
20.185251235961914,63
20.185251235961914,228
20.185251235961914,34
20.185251235961914,59
20.185251235961914,4
20.185251235961914,76
20.185251235961914,512
20.29169774055481,2
20.29169774055481,30
20.29169774055481,208
20.29169774055481,50
20.29169774055481,64
20.29169774055481,333
20.29169774055481,172
20.29169774055481,71
20.29169774055481,246
20.29169774055481,0
20.39219379425049,263
20.39219379425049,21
20.39219379425049,93
20.39219379425049,162
20.39219379425049,0
20.39219379425049,4
20.39219379425049,3
20.39219379425049,0
20.39219379425049,0
20.39219379425049,0
20.487976551055908,3
20.487976551055908,4
20.487976551055908,90
20.487976551055908,2
20.487976551055908,0
20.487976551055908,0
20.487976551055908,26
20.487976551055908,9
20.487976551055908,0
20.487976551055908,0
20.59964942932129,4
20.59964942932129,0
20.59964942932129,0
20.59964942932129,85
20.59964942932129,1
20.59964942932129,0
20.59964942932129,2
20.59964942932129,0
20.59964942932129,0
20.59964942932129,66
20.59964942932129,1
20.695488452911377,0
20.695488452911377,1
20.695488452911377,0
20.695488452911377,6
20.695488452911377,1
20.695488452911377,0
20.695488452911377,0
20.695488452911377,0
20.695488452911377,0
20.695488452911377,0
20.80682134628296,1
20.80682134628296,0
20.80682134628296,12
20.80682134628296,0
20.80682134628296,0
20.80682134628296,0
20.80682134628296,0
20.80682134628296,0
20.80682134628296,0
20.80682134628296,0
20.91011142730713,0
20.91011142730713,0
20.91011142730713,1
20.91011142730713,0
20.91011142730713,0
20.912116765975952,0
20.912116765975952,0
20.912116765975952,0
20.912116765975952,0
20.912116765975952,0
21.01047921180725,0
21.01047921180725,0
21.01047921180725,0
21.01047921180725,3
21.01047921180725,0
21.01047921180725,5
21.01047921180725,0
21.01047921180725,1
21.01047921180725,0
21.01047921180725,0
21.10841464996338,0
21.10841464996338,0
21.10841464996338,2
21.10841464996338,0
21.10841464996338,0
21.10841464996338,0
21.10841464996338,0
21.10841464996338,0
21.10841464996338,18
21.10841464996338,0
21.215344190597534,0
21.215344190597534,0
21.215344190597534,0
21.215344190597534,4
21.215344190597534,0
21.215344190597534,0
21.215344190597534,0
21.217349529266357,5
21.217349529266357,0
21.217349529266357,0
21.31615924835205,0
21.31615924835205,0
21.318164587020874,0
21.318164587020874,0
21.318164587020874,0
21.318164587020874,0
21.318164587020874,0
21.318164587020874,0
21.318164587020874,1
21.318164587020874,0
21.41260862350464,0
21.41260862350464,4
21.41260862350464,0
21.41260862350464,0
21.41260862350464,0
21.41260862350464,0
21.41260862350464,0
21.41260862350464,0
21.41260862350464,0
21.504929542541504,0
21.504929542541504,0
21.504929542541504,0
21.504929542541504,1
21.504929542541504,1
21.504929542541504,0
21.504929542541504,0
21.504929542541504,0
21.504929542541504,0
21.585108995437622,0
21.585108995437622,0
21.585108995437622,0
21.585108995437622,0
21.585108995437622,0
21.585108995437622,0
21.585108995437622,0
21.585108995437622,0
21.585108995437622,0
21.69355297088623,1
21.69355297088623,0
21.69355297088623,2
21.69355297088623,0
21.69355297088623,0
21.69355297088623,0
21.69355297088623,0
21.69355297088623,0
21.69355297088623,0
21.69355297088623,0
21.786133766174316,0
21.786133766174316,0
21.786133766174316,0
21.786133766174316,12
21.786133766174316,0
21.786133766174316,0
21.786133766174316,0
21.786133766174316,1
21.786133766174316,1
21.882980823516846,0
21.882980823516846,0
21.882980823516846,0
21.882980823516846,0
21.882980823516846,0
21.882980823516846,0
21.882980823516846,0
21.882980823516846,0
21.882980823516846,0
21.97865891456604,0
21.97865891456604,0
21.97865891456604,0
21.97865891456604,0
21.97865891456604,1
21.97865891456604,0
21.97865891456604,0
21.97865891456604,0
21.97865891456604,0
21.97865891456604,0
22.06587529182434,0
22.06587529182434,0
22.06587529182434,0
22.06587529182434,0
22.06587529182434,0
22.06587529182434,0
22.06587529182434,0
22.06587529182434,0
22.06587529182434,0
22.06587529182434,0
22.175614833831787,0
22.175614833831787,0
22.175614833831787,0
22.175614833831787,0
22.175614833831787,0
22.175614833831787,1
22.175614833831787,0
22.175614833831787,0
22.175614833831787,0
22.273541688919067,0
22.273541688919067,0
22.273541688919067,0
22.273541688919067,0
22.273541688919067,0
22.273541688919067,0
22.273541688919067,0
22.273541688919067,0
22.273541688919067,0
22.273541688919067,0
22.373900890350342,0
22.373900890350342,0
22.373900890350342,0
22.373900890350342,1
22.373900890350342,3
22.373900890350342,1
22.373900890350342,0
22.373900890350342,0
22.373900890350342,0
22.373900890350342,0
22.477041482925415,0
22.477041482925415,0
22.477041482925415,0
22.477041482925415,1
22.477041482925415,13
22.477041482925415,0
22.477041482925415,1
22.477041482925415,0
22.477041482925415,0
22.477041482925415,0
22.57255482673645,4
22.57255482673645,8
22.57255482673645,0
22.57255482673645,0
22.57255482673645,0
22.57255482673645,0
22.57255482673645,0
22.57255482673645,0
22.57255482673645,1
22.671677589416504,0
22.671677589416504,0
22.671677589416504,0
22.671677589416504,0
22.671677589416504,3
22.671677589416504,17
22.671677589416504,0
22.671677589416504,0
22.671677589416504,0
22.671677589416504,0
22.76351547241211,0
22.76351547241211,0
22.76351547241211,0
22.76351547241211,1
22.76351547241211,0
22.76351547241211,0
22.76351547241211,0
22.76351547241211,2
22.76351547241211,0
22.76351547241211,0
22.87007784843445,0
22.87007784843445,0
22.87007784843445,0
22.87007784843445,0
22.87007784843445,0
22.87007784843445,1
22.87007784843445,0
22.87007784843445,0
22.87007784843445,2
22.964569568634033,0
22.964569568634033,0
22.964569568634033,0
22.964569568634033,0
22.964569568634033,4
22.964569568634033,0
22.964569568634033,3
22.964569568634033,0
22.964569568634033,0
22.964569568634033,0
23.060982704162598,0
23.060982704162598,1
23.060982704162598,0
23.060982704162598,0
23.060982704162598,2
23.060982704162598,0
23.06298828125,0
23.06298828125,1
23.06298828125,3
23.15435791015625,0
23.15435791015625,0
23.15435791015625,0
23.156363487243652,0
23.156363487243652,2
23.156363487243652,0
23.156363487243652,0
23.156363487243652,0
23.156363487243652,0
23.249952793121338,0
23.249952793121338,0
23.249952793121338,0
23.249952793121338,0
23.249952793121338,0
23.249952793121338,0
23.249952793121338,0
23.249952793121338,0
23.249952793121338,0
23.249952793121338,0
23.347002744674683,0
23.347002744674683,0
23.347002744674683,0
23.347002744674683,0
23.347002744674683,0
23.347002744674683,0
23.347002744674683,0
23.347002744674683,0
23.347002744674683,0
23.440659046173096,0
23.440659046173096,0
23.440659046173096,1
23.440659046173096,0
23.440659046173096,0
23.440659046173096,0
23.440659046173096,0
23.440659046173096,0
23.440659046173096,0
23.440659046173096,0
23.536601781845093,0
23.536601781845093,0
23.536601781845093,0
23.536601781845093,0
23.536601781845093,4
23.536601781845093,0
23.536601781845093,6
23.536601781845093,0
23.536601781845093,5
23.621376752853394,0
23.621376752853394,0
23.621376752853394,0
23.621376752853394,0
23.621376752853394,0
23.621376752853394,3
23.621376752853394,0
23.621376752853394,0
23.621376752853394,0
23.72502088546753,0
23.72502088546753,0
23.72502088546753,0
23.72502088546753,0
23.72502088546753,0
23.72502088546753,11
23.72502088546753,0
23.72502088546753,0
23.72502088546753,4
23.812808513641357,0
23.812808513641357,0
23.812808513641357,1
23.812808513641357,0
23.812808513641357,0
23.812808513641357,2
23.812808513641357,0
23.812808513641357,5
23.812808513641357,1
23.812808513641357,0
23.90859866142273,6
23.90859866142273,0
23.90859866142273,0
23.90859866142273,0
23.90859866142273,0
23.90859866142273,4
23.90859866142273,0
23.90859866142273,0
23.90859866142273,0
24.005970001220703,1
24.005970001220703,2
24.005970001220703,3
24.005970001220703,3
24.005970001220703,0
24.005970001220703,0
24.005970001220703,0
24.005970001220703,0
24.005970001220703,0
24.099672555923462,0
24.099672555923462,0
24.099672555923462,0
24.099672555923462,0
24.099672555923462,0
24.099672555923462,2
24.099672555923462,0
24.099672555923462,0
24.099672555923462,0
24.19431447982788,0
24.19431447982788,0
24.19431447982788,0
24.19431447982788,0
24.19431447982788,3
24.19431447982788,0
24.19431447982788,4
24.19431447982788,4
24.19431447982788,0
24.19431447982788,0
24.289843559265137,0
24.289843559265137,0
24.289843559265137,0
24.289843559265137,4
24.289843559265137,0
24.289843559265137,0
24.289843559265137,5
24.289843559265137,4
24.289843559265137,0
24.3868465423584,0
24.3868465423584,4
24.3868465423584,3
24.3868465423584,0
24.38885259628296,0
24.38885259628296,0
24.38885259628296,0
24.38885259628296,0
24.38885259628296,2
24.38885259628296,2
24.48071551322937,0
24.48071551322937,1
24.48071551322937,2
24.48071551322937,9
24.48071551322937,0
24.48071551322937,1
24.48071551322937,0
24.48071551322937,0
24.48071551322937,0
24.57658815383911,0
24.57658815383911,0
24.57658815383911,1
24.57658815383911,0
24.57658815383911,0
24.57658815383911,0
24.57658815383911,0
24.57658815383911,0
24.57658815383911,0
24.670872688293457,3
24.670872688293457,0
24.670872688293457,5
24.670872688293457,0
24.670872688293457,0
24.670872688293457,0
24.670872688293457,0
24.670872688293457,0
24.670872688293457,0
24.766010761260986,0
24.766010761260986,9
24.766010761260986,9
24.766010761260986,0
24.766010761260986,1
24.766010761260986,0
24.766010761260986,6
24.766010761260986,5
24.766010761260986,0
24.766010761260986,0
24.846487522125244,0
24.846487522125244,0
24.846487522125244,0
24.861896514892578,2
24.861896514892578,0
24.861896514892578,10
24.861896514892578,0
24.861896514892578,0
24.861896514892578,0
24.95528531074524,0
24.95528531074524,0
24.95528531074524,0
24.95528531074524,0
24.95528531074524,0
24.95528531074524,0
24.95528531074524,0
24.95528531074524,0
24.95528531074524,1
25.036755084991455,2
25.036755084991455,8
25.036755084991455,0
25.036755084991455,6
25.036755084991455,3
25.036755084991455,0
25.036755084991455,2
25.036755084991455,2
25.036755084991455,0
25.036755084991455,0
25.14330220222473,0
25.14330220222473,0
25.14330220222473,0
25.14330220222473,0
25.14330220222473,0
25.14330220222473,6
25.14330220222473,0
25.14330220222473,0
25.14330220222473,0
25.239720821380615,0
25.239720821380615,0
25.239720821380615,0
25.239720821380615,0
25.239720821380615,5
25.239720821380615,0
25.239720821380615,4
25.239720821380615,0
25.239720821380615,0
25.33287024497986,0
25.33287024497986,0
25.33287024497986,1
25.33287024497986,0
25.33287024497986,0
25.33287024497986,0
25.33287024497986,0
25.33287024497986,0
25.33287024497986,0
25.33287024497986,0
25.42778253555298,0
25.42778253555298,0
25.42778253555298,0
25.42778253555298,3
25.42778253555298,1
25.42778253555298,0
25.42778253555298,5
25.42778253555298,0
25.42778253555298,8
25.513395071029663,0
25.513395071029663,0
25.513395071029663,12
25.513395071029663,0
25.513395071029663,0
25.513395071029663,0
25.513395071029663,0
25.513395071029663,4
25.513395071029663,9
25.61083745956421,4
25.61083745956421,0
25.61083745956421,13
25.61083745956421,1
25.61083745956421,0
25.61083745956421,0
25.61083745956421,0
25.61083745956421,0
25.61083745956421,0
25.711906671524048,3
25.71391224861145,0
25.71391224861145,0
25.71391224861145,1
25.71391224861145,6
25.71391224861145,0
25.71391224861145,8
25.71391224861145,2
25.71391224861145,0
25.71391224861145,8
25.809712886810303,0
25.809712886810303,0
25.809712886810303,1
25.809712886810303,9
25.809712886810303,8
25.809712886810303,6
25.809712886810303,12
25.809712886810303,1
25.809712886810303,0
25.809712886810303,0
25.905033588409424,13
25.905033588409424,0
25.905033588409424,20
25.905033588409424,8
25.905033588409424,0
25.905033588409424,3
25.905033588409424,2
25.905033588409424,3
25.905033588409424,0
25.989197969436646,4
25.989197969436646,0
25.989197969436646,4
25.989197969436646,2
25.989197969436646,0
25.989197969436646,3
25.989197969436646,0
25.989197969436646,0
25.989197969436646,3
26.092671394348145,0
26.092671394348145,0
26.092671394348145,12
26.092671394348145,1
26.092671394348145,0
26.092671394348145,2
26.092671394348145,0
26.092671394348145,2
26.092671394348145,0
26.180015802383423,0
26.180015802383423,0
26.180015802383423,0
26.180015802383423,21
26.180015802383423,23
26.180015802383423,3
26.180015802383423,0
26.180015802383423,0
26.180015802383423,0
26.180015802383423,0
26.275537252426147,11
26.275537252426147,0
26.275537252426147,0
26.275537252426147,0
26.275537252426147,1
26.275537252426147,15
26.275537252426147,15
26.275537252426147,15
26.275537252426147,3
26.37839102745056,20
26.37839102745056,0
26.37839102745056,40
26.37839102745056,39
26.37839102745056,20
26.37839102745056,3
26.37839102745056,27
26.37839102745056,19
26.37839102745056,93
26.47435450553894,129
26.47435450553894,18
26.47435450553894,8
26.47435450553894,19
26.47435450553894,138
26.47435450553894,90
26.476360082626343,0
26.476360082626343,0
26.476360082626343,7
26.476360082626343,9
26.5679452419281,84
26.5679452419281,28
26.5679452419281,4
26.5679452419281,0
26.5679452419281,0
26.5679452419281,30
26.5679452419281,149
26.5679452419281,5
26.569950580596924,131
26.663612842559814,16
26.663612842559814,6
26.663612842559814,9
26.663612842559814,76
26.663612842559814,57
26.663612842559814,1
26.663612842559814,3
26.663612842559814,81
26.663612842559814,30
26.756814002990723,0
26.756814002990723,151
26.756814002990723,7
26.756814002990723,2
26.756814002990723,12
26.756814002990723,7
26.756814002990723,0
26.758820056915283,1
26.758820056915283,8
26.758820056915283,4
26.85198187828064,2
26.85198187828064,0
26.85198187828064,3
26.85198187828064,20
26.85198187828064,91
26.85198187828064,3
26.85198187828064,3
26.85198187828064,4
26.85198187828064,0
26.94205069541931,2
26.94205069541931,12
26.94205069541931,5
26.94205069541931,2
26.94205069541931,14
26.94205069541931,19
26.94205069541931,12
26.94205069541931,4
26.94205069541931,22
27.036720037460327,54
27.036720037460327,5
27.036720037460327,171
27.036720037460327,87
27.036720037460327,0
27.036720037460327,165
27.036720037460327,46
27.036720037460327,33
27.036720037460327,79
27.131457090377808,3
27.131457090377808,119
27.131457090377808,58
27.131457090377808,71
27.131457090377808,79
27.131457090377808,3
27.131457090377808,112
27.131457090377808,306
27.131457090377808,45
27.224994659423828,189
27.224994659423828,67
27.224994659423828,286
27.224994659423828,139
27.224994659423828,182
27.224994659423828,911
27.224994659423828,40
27.226742029190063,22
27.226742029190063,71
27.306107759475708,165
27.306107759475708,31
27.306107759475708,6
27.306107759475708,149
27.306107759475708,149
27.306107759475708,3
27.306107759475708,32
27.306107759475708,22
27.306107759475708,32
27.41445517539978,134
27.41445517539978,203
27.41445517539978,18
27.41445517539978,42
27.41445517539978,509
27.41445517539978,71
27.41445517539978,266
27.41445517539978,8
27.41445517539978,34
27.41445517539978,7
27.49737000465393,472
27.49737000465393,17
27.49737000465393,246
27.49737000465393,2
27.49737000465393,16
27.49737000465393,0
27.49737000465393,367
27.513136386871338,19
27.513136386871338,294
27.617544174194336,130
27.617544174194336,35
27.617544174194336,85
27.617544174194336,158
27.617544174194336,328
27.617544174194336,261
27.617544174194336,81
27.61954927444458,80
27.61954927444458,74
27.61954927444458,48
27.61954927444458,217
27.72002649307251,57
27.72002649307251,12
27.72002649307251,15
27.72002649307251,379
27.72002649307251,64
27.72002649307251,75
27.72002649307251,84
27.72002649307251,162
27.72002649307251,33
27.72002649307251,93
27.825235605239868,100
27.825235605239868,149
27.825235605239868,537
27.825235605239868,95
27.825235605239868,100
27.825235605239868,177
27.825235605239868,55
27.825235605239868,60
27.825235605239868,99
27.825235605239868,27
27.928704023361206,185
27.928704023361206,210
27.928704023361206,13
27.928704023361206,347
27.928704023361206,25
27.928704023361206,352
27.928704023361206,169
27.928704023361206,1
27.928704023361206,104
27.928704023361206,318
28.031792879104614,0
28.031792879104614,831
28.031792879104614,202
28.031792879104614,298
28.031792879104614,19
28.031792879104614,90
28.033799409866333,539
28.033799409866333,61
28.033799409866333,4
28.033799409866333,165
28.13384699821472,736
28.13384699821472,61
28.13384699821472,46
28.13384699821472,145
28.13384699821472,21
28.13384699821472,605
28.13384699821472,392
28.13384699821472,664
28.13384699821472,190
28.13384699821472,26
28.228740453720093,202
28.228740453720093,50
28.228740453720093,816
28.228740453720093,161
28.228740453720093,78
28.228740453720093,237
28.228740453720093,552
28.228740453720093,893
28.228740453720093,75
28.23897123336792,245
28.33878517150879,306
28.33878517150879,452
28.33878517150879,379
28.33878517150879,1023
28.33878517150879,679
28.33878517150879,301
28.33878517150879,368
28.33878517150879,399
28.33878517150879,133
28.33878517150879,850
28.434791803359985,222
28.434791803359985,4
28.434791803359985,58
28.434791803359985,402
28.434791803359985,590
28.434791803359985,139
28.434791803359985,228
28.434791803359985,147
28.434791803359985,726
28.434791803359985,951
28.53995680809021,181
28.53995680809021,508
28.53995680809021,79
28.53995680809021,156
28.53995680809021,371
28.53995680809021,781
28.53995680809021,116
28.53995680809021,12
28.53995680809021,36
28.53995680809021,113
28.636862993240356,978
28.636862993240356,413
28.636862993240356,101
28.636862993240356,0
28.636862993240356,15
28.636862993240356,896
28.636862993240356,275
28.636862993240356,244
28.636862993240356,10
28.732017278671265,185
28.732017278671265,481
28.732017278671265,34
28.732017278671265,0
28.732017278671265,568
28.732017278671265,5
28.732017278671265,0
28.732017278671265,69
28.732017278671265,227
28.827467918395996,241
28.827467918395996,58
28.827467918395996,41
28.827467918395996,227
28.827467918395996,163
28.827467918395996,2
28.827467918395996,101
28.827467918395996,3
28.827467918395996,79
28.827467918395996,113
28.924498081207275,1023
28.924498081207275,60
28.924498081207275,12
28.924498081207275,927
28.924498081207275,672
28.924498081207275,114
28.924498081207275,246
28.924498081207275,172
28.924498081207275,394
29.021435737609863,220
29.021435737609863,7
29.021435737609863,985
29.021435737609863,302
29.021435737609863,92
29.021435737609863,141
29.021435737609863,28
29.021435737609863,852
29.021435737609863,126
29.021435737609863,323
29.124554872512817,56
29.124554872512817,366
29.124554872512817,302
29.124554872512817,362
29.124554872512817,194
29.124554872512817,109
29.126561164855957,435
29.126561164855957,177
29.126561164855957,185
29.126561164855957,117
29.231135368347168,498
29.231135368347168,520
29.231135368347168,90
29.231135368347168,26
29.231135368347168,4
29.231135368347168,92
29.231135368347168,235
29.231135368347168,256
29.231135368347168,74
29.231135368347168,168
29.336341381072998,634
29.336341381072998,4
29.336341381072998,60
29.336341381072998,54
29.336341381072998,64
29.336341381072998,1023
29.336341381072998,234
29.336341381072998,49
29.336341381072998,10
29.336341381072998,572
29.439350605010986,58
29.439350605010986,4
29.439350605010986,59
29.439350605010986,774
29.439350605010986,812
29.439350605010986,108
29.439350605010986,224
29.439350605010986,122
29.439350605010986,460
29.439350605010986,265
29.439350605010986,74
29.54167938232422,160
29.54167938232422,6
29.54167938232422,35
29.54167938232422,175
29.54268479347229,90
29.54268479347229,35
29.54268479347229,211
29.54268479347229,53
29.54268479347229,372
29.54268479347229,6
29.646385431289673,29
29.646385431289673,1
29.646385431289673,24
29.646385431289673,23
29.646385431289673,14
29.646385431289673,41
29.646385431289673,699
29.646385431289673,114
29.646385431289673,33
29.646385431289673,355
29.73396635055542,203
29.73396635055542,24
29.73396635055542,245
29.73396635055542,56
29.73396635055542,47
29.73396635055542,94
29.73396635055542,58
29.73396635055542,10
29.73396635055542,106
29.73396635055542,154
29.845938205718994,72
29.845938205718994,4
29.845938205718994,8
29.845938205718994,221
29.845938205718994,43
29.845938205718994,2
29.845938205718994,0
29.845938205718994,128
29.845938205718994,33
29.845938205718994,0
29.957042694091797,6
29.957042694091797,46
29.957042694091797,70
29.957042694091797,52
29.957042694091797,4
29.957042694091797,11
29.957042694091797,26
29.957042694091797,6
29.957042694091797,2
29.957042694091797,47
30.061962366104126,9
30.061962366104126,56
30.061962366104126,22
30.061962366104126,57
30.061962366104126,25
30.061962366104126,3
30.061962366104126,59
30.061962366104126,4
30.061962366104126,20
30.061962366104126,9
30.163007497787476,1
30.163007497787476,20
30.163007497787476,3
30.163007497787476,1
30.163007497787476,2
30.163007497787476,62
30.163007497787476,4
30.163007497787476,46
30.163007497787476,10
30.165013074874878,21
30.258675575256348,49
30.258675575256348,61
30.258675575256348,2
30.258675575256348,0
30.258675575256348,0
30.258675575256348,55
30.258675575256348,53
30.258675575256348,3
30.258675575256348,38
30.258675575256348,0
30.258675575256348,6
30.354751348495483,13
30.354751348495483,103
30.354751348495483,2
30.354751348495483,0
30.354751348495483,17
30.354751348495483,0
30.354751348495483,5
30.354751348495483,32
30.354751348495483,137
30.354751348495483,7
30.4649875164032,15
30.4649875164032,32
30.4649875164032,32
30.4649875164032,20
30.4649875164032,26
30.4649875164032,0
30.4649875164032,11
30.4649875164032,7
30.4649875164032,0
30.4649875164032,1
30.560132265090942,80
30.560132265090942,60
30.560132265090942,8
30.560132265090942,0
30.560132265090942,8
30.560132265090942,10
30.560132265090942,0
30.560132265090942,2
30.560132265090942,13
30.560132265090942,39
30.67204737663269,0
30.67204737663269,0
30.67204737663269,18
30.67204737663269,40
30.67204737663269,11
30.67204737663269,1
30.67204737663269,0
30.67204737663269,90
30.67204737663269,148
30.67204737663269,11
30.77843737602234,0
30.77843737602234,12
30.77843737602234,13
30.77843737602234,15
30.77843737602234,2
30.77843737602234,22
30.77843737602234,61
30.77843737602234,4
30.77843737602234,53
30.77843737602234,15
30.881515741348267,17
30.881515741348267,32
30.881515741348267,14
30.881515741348267,36
30.881515741348267,2
30.881515741348267,1
30.881515741348267,0
30.881515741348267,6
30.881515741348267,0
30.881515741348267,7
30.982815980911255,1
30.982815980911255,0
30.982815980911255,2
30.982815980911255,0
30.982815980911255,41
30.982815980911255,6
30.982815980911255,7
30.982815980911255,0
30.982815980911255,15
30.982815980911255,37
31.083303928375244,25
31.083303928375244,30
31.084809064865112,45
31.084809064865112,3
31.084809064865112,11
31.084809064865112,7
31.084809064865112,26
31.084809064865112,20
31.084809064865112,9
31.084809064865112,2
31.180216550827026,3
31.180216550827026,0
31.180216550827026,0
31.180216550827026,0
31.180216550827026,0
31.180216550827026,0
31.180216550827026,1
31.180216550827026,0
31.180216550827026,5
31.27541708946228,32
31.27541708946228,0
31.27541708946228,10
31.27541708946228,0
31.27541708946228,85
31.27586531639099,10
31.27586531639099,6
31.27586531639099,3
31.27586531639099,4
31.27586531639099,0
31.370657682418823,6
31.370657682418823,0
31.370657682418823,0
31.370657682418823,0
31.372664213180542,0
31.372664213180542,17
31.372664213180542,4
31.372664213180542,5
31.372664213180542,0
31.465758085250854,0
31.465758085250854,0
31.465758085250854,0
31.465758085250854,0
31.465758085250854,0
31.465758085250854,0
31.465758085250854,0
31.465758085250854,10
31.465758085250854,0
31.545272827148438,0
31.545272827148438,0
31.545272827148438,0
31.545272827148438,0
31.545272827148438,0
31.545272827148438,14
31.545272827148438,3
31.545272827148438,6
31.545272827148438,0
31.656898736953735,13
31.656898736953735,0
31.656898736953735,22
31.656898736953735,4
31.656898736953735,0
31.656898736953735,0
31.656898736953735,0
31.656898736953735,2
31.656898736953735,15
31.656898736953735,0
31.656898736953735,14
31.766714334487915,66
31.766714334487915,2
31.766714334487915,37
31.766714334487915,5
31.766714334487915,0
31.766714334487915,9
31.766714334487915,0
31.766714334487915,4
31.766714334487915,8
31.766714334487915,0
31.867241144180298,0
31.867241144180298,22
31.86924695968628,181
31.86924695968628,8
31.86924695968628,12
31.86924695968628,12
31.86924695968628,10
31.86924695968628,0
31.86924695968628,17
31.86924695968628,34
31.958521366119385,0
31.958521366119385,9
31.958521366119385,59
31.958521366119385,5
31.958521366119385,15
31.958521366119385,2
31.958521366119385,0
31.958521366119385,1
31.958521366119385,68
31.958521366119385,44
32.07131218910217,0
32.07131218910217,3
32.07131218910217,0
32.07131218910217,0
32.07131218910217,9
32.07131218910217,6
32.07131218910217,0
32.07131218910217,0
32.07131218910217,34
32.07131218910217,10
32.166935205459595,5
32.166935205459595,7
32.166935205459595,6
32.166935205459595,5
32.166935205459595,83
32.168941020965576,60
32.168941020965576,0
32.168941020965576,16
32.168941020965576,12
32.26216244697571,6
32.26216244697571,24
32.26216244697571,41
32.26216244697571,87
32.26216244697571,4
32.26216244697571,0
32.26216244697571,0
32.26216244697571,0
32.26216244697571,50
32.357144832611084,34
32.357144832611084,5
32.357144832611084,0
32.357144832611084,22
32.357144832611084,1
32.357144832611084,0
32.357144832611084,19
32.357144832611084,0
32.357144832611084,12
32.357144832611084,23
32.45004749298096,16
32.45004749298096,25
32.45004749298096,0
32.45004749298096,0
32.45004749298096,0
32.45004749298096,0
32.45004749298096,0
32.45004749298096,4
32.45004749298096,0
32.54759097099304,2
32.54759097099304,0
32.54759097099304,1
32.54759097099304,0
32.54759097099304,66
32.549192667007446,110
32.549192667007446,146
32.549192667007446,28
32.549192667007446,6
32.64394545555115,13
32.64394545555115,8
32.64394545555115,4
32.64394545555115,2
32.64394545555115,3
32.64394545555115,0
32.64394545555115,4
32.64394545555115,62
32.64394545555115,15
32.64394545555115,56
32.73949480056763,10
32.73949480056763,99
32.73949480056763,0
32.73949480056763,0
32.73949480056763,0
32.73949480056763,0
32.73949480056763,27
32.73949480056763,0
32.73949480056763,18
32.83132863044739,20
32.83132863044739,42
32.83132863044739,30
32.83132863044739,151
32.83132863044739,26
32.83132863044739,7
32.83132863044739,10
32.83132863044739,3
32.83132863044739,37
32.83132863044739,87
32.932586669921875,185
32.932586669921875,66
32.932586669921875,4
32.932586669921875,0
32.932586669921875,86
32.932586669921875,33
32.932586669921875,1
32.932586669921875,9
32.932586669921875,14
33.02614760398865,0
33.02614760398865,3
33.02614760398865,0
33.02614760398865,9
33.02614760398865,43
33.02614760398865,105
33.02614760398865,0
33.02614760398865,1
33.02614760398865,20
33.123939037323,10
33.123939037323,12
33.123939037323,0
33.123939037323,2
33.123939037323,7
33.123939037323,139
33.123939037323,10
33.123939037323,4
33.123939037323,2
33.12594485282898,40
33.210705041885376,27
33.210705041885376,43
33.210705041885376,28
33.210705041885376,13
33.210705041885376,0
33.210705041885376,90
33.210705041885376,216
33.210705041885376,21
33.210705041885376,1
33.210705041885376,12
33.32201862335205,19
33.32201862335205,3
33.32201862335205,83
33.32201862335205,52
33.32201862335205,91
33.32201862335205,0
33.32201862335205,1
33.32201862335205,0
33.32201862335205,155
33.42056584358215,96
33.42056584358215,36
33.42056584358215,5
33.422571897506714,0
33.422571897506714,22
33.422571897506714,52
33.422571897506714,145
33.422571897506714,73
33.422571897506714,108
33.422571897506714,25
33.511958360672,25
33.511958360672,109
33.511958360672,35
33.511958360672,0
33.511958360672,8
33.511958360672,6
33.511958360672,18
33.511958360672,14
33.511958360672,34
33.511958360672,36
33.62123990058899,39
33.62123990058899,10
33.62123990058899,66
33.62123990058899,90
33.62123990058899,1
33.62123990058899,5
33.62123990058899,69
33.62123990058899,86
33.62123990058899,25
33.62123990058899,82
33.71820878982544,102
33.71820878982544,12
33.71820878982544,33
33.71820878982544,7
33.71820878982544,87
33.71820878982544,101
33.71820878982544,27
33.71820878982544,1
33.71820878982544,0
33.82114601135254,41
33.82114601135254,124
33.82315111160278,18
33.82315111160278,21
33.82315111160278,1
33.82315111160278,3
33.82315111160278,18
33.82315111160278,4
33.82315111160278,0
33.82315111160278,6
33.908873081207275,16
33.908873081207275,0
33.908873081207275,21
33.908873081207275,0
33.908873081207275,37
33.908873081207275,57
33.908873081207275,0
33.908873081207275,6
33.908873081207275,0
33.908873081207275,6
34.02120780944824,19
34.02120780944824,42
34.02120780944824,14
34.02120780944824,12
34.02120780944824,0
34.02120780944824,39
34.02120780944824,0
34.02120780944824,4
34.02120780944824,0
34.02120780944824,1
34.1156952381134,0
34.1156952381134,4
34.1156952381134,0
34.1156952381134,0
34.1156952381134,0
34.1156952381134,2
34.1156952381134,0
34.1156952381134,3
34.1156952381134,0
34.21047830581665,3
34.21047830581665,5
34.21047830581665,0
34.21047830581665,0
34.21047830581665,0
34.21047830581665,0
34.21047830581665,0
34.21047830581665,0
34.21047830581665,0
34.21047830581665,3
34.305124044418335,14
34.305124044418335,15
34.305124044418335,4
34.305124044418335,18
34.305124044418335,6
34.305124044418335,14
34.305124044418335,9
34.305124044418335,0
34.305124044418335,21
34.400795221328735,9
34.400795221328735,16
34.400795221328735,7
34.400795221328735,0
34.400795221328735,10
34.400795221328735,30
34.400795221328735,11
34.400795221328735,12
34.400795221328735,0
34.49747157096863,37
34.49747157096863,0
34.49747157096863,0
34.49747157096863,0
34.49747157096863,10
34.49747157096863,0
34.49747157096863,8
34.49747157096863,0
34.49747157096863,0
34.49747157096863,0
34.59158968925476,11
34.59158968925476,0
34.59158968925476,8
34.59158968925476,16
34.59158968925476,0
34.59158968925476,0
34.59158968925476,0
34.59158968925476,0
34.59158968925476,0
34.689282178878784,1
34.689282178878784,0
34.689282178878784,23
34.689282178878784,1
34.689282178878784,0
34.689282178878784,0
34.689282178878784,0
34.689282178878784,0
34.689282178878784,5
34.689282178878784,0
34.79124712944031,0
34.79124712944031,0
34.79124712944031,0
34.79124712944031,0
34.79124712944031,0
34.79124712944031,0
34.79124712944031,0
34.79124712944031,0
34.79124712944031,1
34.79325270652771,0
34.88743543624878,0
34.88743543624878,0
34.88743543624878,0
34.88743543624878,0
34.88743543624878,0
34.88743543624878,0
34.88743543624878,0
34.88743543624878,0
34.88743543624878,0
34.98797345161438,0
34.98797345161438,0
34.98797345161438,0
34.98797345161438,0
34.98797345161438,0
34.98797345161438,2
34.98797345161438,0
34.98797345161438,0
34.98797345161438,0
34.98797345161438,0
35.083399057388306,0
35.083399057388306,0
35.083399057388306,0
35.083399057388306,0
35.083399057388306,0
35.083399057388306,0
35.083399057388306,0
35.083399057388306,0
35.083399057388306,0
35.083399057388306,0
35.18282175064087,0
35.18282175064087,0
35.18282175064087,0
35.18282175064087,0
35.18282175064087,0
35.18282175064087,0
35.18282175064087,0
35.18282175064087,0
35.18282175064087,0
35.2815523147583,0
35.2815523147583,0
35.2815523147583,1
35.2815523147583,0
35.2815523147583,0
35.2815523147583,0
35.2815523147583,0
35.2815523147583,0
35.2815523147583,0
35.2815523147583,0
35.37014842033386,0
35.37014842033386,0
35.37874221801758,41
35.37874221801758,0
35.37874221801758,0
35.37874221801758,2
35.37874221801758,0
35.37874221801758,0
35.37874221801758,0
35.47612166404724,0
35.47612166404724,6
35.47612166404724,0
35.47612166404724,0
35.47612166404724,0
35.47612166404724,9
35.47612166404724,14
35.47612166404724,1
35.47612166404724,1
35.47612166404724,0
35.573237895965576,0
35.573237895965576,0
35.573237895965576,0
35.573237895965576,0
35.573237895965576,0
35.573237895965576,0
35.573237895965576,0
35.573237895965576,2
35.573237895965576,0
35.65452194213867,0
35.65452194213867,0
35.65452194213867,0
35.65452194213867,0
35.65452194213867,0
35.65452194213867,0
35.65452194213867,0
35.65452194213867,0
35.65452194213867,1
35.65452194213867,0
35.76392197608948,1
35.76392197608948,0
35.76392197608948,0
35.76392197608948,0
35.76392197608948,0
35.76392197608948,0
35.76392197608948,2
35.76392197608948,0
35.76392197608948,2
35.85939264297485,0
35.85939264297485,0
35.85939264297485,0
35.85939264297485,0
35.85939264297485,0
35.85939264297485,1
35.85939264297485,0
35.85939264297485,2
35.85939264297485,0
35.861398696899414,0
35.941001176834106,0
35.941001176834106,0
35.941001176834106,0
35.941001176834106,5
35.941001176834106,0
35.941001176834106,6
35.941001176834106,0
35.941001176834106,0
35.941001176834106,0
36.058215856552124,4
36.058215856552124,0
36.058215856552124,1
36.058215856552124,2
36.058215856552124,0
36.058215856552124,0
36.058215856552124,5
36.058215856552124,0
36.058215856552124,0
36.058215856552124,0
36.15886306762695,2
36.15886306762695,0
36.15886306762695,2
36.15886306762695,2
36.15886306762695,0
36.15886306762695,0
36.15886306762695,0
36.15886306762695,2
36.15886306762695,0
36.15886306762695,3
36.26114773750305,0
36.26114773750305,1
36.26114773750305,0
36.26114773750305,3
36.26114773750305,0
36.26114773750305,0
36.26114773750305,3
36.26114773750305,0
36.26114773750305,0
36.26114773750305,3
36.36188077926636,2
36.36188077926636,1
36.36188077926636,0
36.36388635635376,2
36.36388635635376,0
36.36388635635376,0
36.36388635635376,0
36.36388635635376,1
36.36388635635376,2
36.36388635635376,0
36.46266031265259,3
36.46266031265259,12
36.46266031265259,0
36.46266031265259,0
36.46266031265259,9
36.46266031265259,1
36.46266031265259,2
36.46266031265259,1
36.46266031265259,4
36.46266031265259,4
36.55783557891846,0
36.55783557891846,5
36.55783557891846,0
36.55783557891846,5
36.55783557891846,1
36.55783557891846,8
36.55783557891846,0
36.55783557891846,2
36.55783557891846,1
36.55783557891846,3
36.653711557388306,0
36.653711557388306,0
36.653711557388306,2
36.653711557388306,5
36.653711557388306,0
36.653711557388306,4
36.653711557388306,1
36.653711557388306,2
36.653711557388306,1
36.74989676475525,4
36.74989676475525,5
36.74989676475525,7
36.74989676475525,4
36.74989676475525,0
36.74989676475525,5
36.74989676475525,4
36.74989676475525,4
36.74989676475525,6
36.84820485115051,8
36.84820485115051,1
36.84820485115051,4
36.84820485115051,1
36.84820485115051,0
36.84820485115051,2
36.84820485115051,4
36.84820485115051,0
36.84820485115051,12
36.84820485115051,29
36.946128606796265,3
36.946128606796265,0
36.946128606796265,2
36.946128606796265,1
36.946128606796265,2
36.946128606796265,16
36.946128606796265,35
36.946128606796265,3
36.946128606796265,5
36.946128606796265,0
37.03535199165344,6
37.03535199165344,13
37.03535199165344,24
37.03535199165344,0
37.03535199165344,0
37.03535199165344,0
37.03535199165344,6
37.03535199165344,4
37.03535199165344,4
37.135096311569214,4
37.135096311569214,16
37.135096311569214,2
37.135096311569214,0
37.137102365493774,0
37.137102365493774,0
37.137102365493774,12
37.137102365493774,9
37.137102365493774,11
37.23195481300354,9
37.23195481300354,1
37.23195481300354,16
37.23195481300354,11
37.23195481300354,0
37.23195481300354,16
37.23195481300354,6
37.23396015167236,6
37.23396015167236,6
37.23396015167236,4
37.328428983688354,0
37.328428983688354,6
37.328428983688354,16
37.328428983688354,18
37.328428983688354,0
37.328428983688354,4
37.328428983688354,104
37.328428983688354,41
37.328428983688354,31
37.42391324043274,12
37.42391324043274,0
37.42391324043274,11
37.42391324043274,13
37.42391324043274,27
37.42391324043274,0
37.42391324043274,101
37.42391324043274,3
37.42391324043274,14
37.52046012878418,14
37.52046012878418,0
37.52046012878418,20
37.52046012878418,151
37.52046012878418,228
37.52046012878418,7
37.52046012878418,30
37.52046012878418,12
37.52046012878418,178
37.52046012878418,207
37.6145920753479,488
37.6145920753479,82
37.6145920753479,7
37.6145920753479,15
37.6145920753479,550
37.6145920753479,24
37.6145920753479,91
37.6145920753479,145
37.6145920753479,137
37.70823287963867,244
37.70823287963867,47
37.70823287963867,3
37.70823287963867,186
37.70823287963867,115
37.70823287963867,74
37.70823287963867,696
37.70823287963867,64
37.70823287963867,432
37.803460121154785,168
37.803460121154785,124
37.803460121154785,187
37.803460121154785,426
37.803460121154785,193
37.803460121154785,95
37.803460121154785,246
37.803460121154785,117
37.803460121154785,167
37.896808385849,312
37.89881372451782,118
37.89881372451782,44
37.89881372451782,111
37.89881372451782,431
37.89881372451782,102
37.89881372451782,352
37.89881372451782,67
37.89881372451782,78
37.89881372451782,97
37.99808645248413,147
37.99808645248413,667
37.99808645248413,79
37.99808645248413,960
37.99808645248413,78
37.99808645248413,91
37.99808645248413,68
37.99808645248413,63
37.99808645248413,180
38.09591722488403,70
38.09591722488403,96
38.09591722488403,445
38.09692311286926,377
38.09692311286926,3
38.09692311286926,423
38.09692311286926,181
38.09692311286926,560
38.09692311286926,236
38.09692311286926,260
38.19241380691528,1
38.19241380691528,78
38.19241380691528,816
38.19241380691528,477
38.19241380691528,93
38.19241380691528,96
38.19241380691528,325
38.19241380691528,155
38.19241380691528,87
38.19241380691528,228
38.29629158973694,48
38.29629158973694,43
38.29629158973694,720
38.29629158973694,87
38.29829692840576,389
38.29829692840576,58
38.29829692840576,168
38.29829692840576,315
38.29829692840576,151
38.29829692840576,579
38.38349509239197,14
38.38349509239197,4
38.38349509239197,317
38.38349509239197,202
38.38349509239197,143
38.38349509239197,268
38.38349509239197,329
38.38349509239197,13
38.38349509239197,54
38.494662284851074,124
38.494662284851074,394
38.494662284851074,241
38.494662284851074,315
38.494662284851074,44
38.494662284851074,50
38.494662284851074,553
38.494662284851074,35
38.494662284851074,186
38.494662284851074,71
38.599045753479004,6
38.599045753479004,213
38.599045753479004,501
38.599045753479004,408
38.599045753479004,360
38.599045753479004,263
38.599045753479004,304
38.599045753479004,900
38.599045753479004,33
38.599045753479004,135
38.68623757362366,71
38.68623757362366,321
38.68623757362366,467
38.68623757362366,160
38.68623757362366,31
38.68623757362366,199
38.68623757362366,361
38.68623757362366,25
38.68623757362366,30
38.70244240760803,764
38.79768967628479,96
38.79768967628479,89
38.79768967628479,552
38.79768967628479,390
38.79768967628479,27
38.79768967628479,255
38.79768967628479,328
38.79768967628479,107
38.79768967628479,44
38.79768967628479,523
38.89265561103821,426
38.89265561103821,128
38.89265561103821,79
38.89265561103821,398
38.89265561103821,172
38.89265561103821,306
38.89265561103821,104
38.89265561103821,41
38.89265561103821,66
38.89265561103821,13
39.00335621833801,286
39.00335621833801,283
39.00335621833801,15
39.00335621833801,421
39.00335621833801,98
39.00335621833801,78
39.00335621833801,577
39.00335621833801,79
39.00335621833801,303
39.00335621833801,103
39.10333275794983,357
39.10333275794983,509
39.10333275794983,58
39.10333275794983,174
39.10333275794983,399
39.10333275794983,142
39.10333275794983,349
39.10333275794983,410
39.10333275794983,59
39.19426417350769,690
39.19426417350769,198
39.19426417350769,337
39.19426417350769,114
39.19426417350769,3
39.19426417350769,243
39.19426417350769,548
39.19426417350769,158
39.19426417350769,142
39.19426417350769,62
39.29030156135559,25
39.29030156135559,179
39.29030156135559,111
39.29030156135559,52
39.29030156135559,292
39.29030156135559,58
39.29030156135559,182
39.29030156135559,2
39.29030156135559,262
39.29030156135559,91
39.38631820678711,134
39.38631820678711,276
39.38631820678711,329
39.38631820678711,362
39.38631820678711,35
39.38631820678711,39
39.38631820678711,409
39.38631820678711,37
39.38631820678711,307
39.49734091758728,94
39.49734091758728,69
39.49734091758728,43
39.49734091758728,26
39.49734091758728,127
39.49734091758728,18
39.49734091758728,265
39.49734091758728,72
39.49734091758728,138
39.49734091758728,207
39.609352827072144,189
39.609352827072144,339
39.609352827072144,56
39.609352827072144,660
39.609352827072144,91
39.609352827072144,167
39.609352827072144,67
39.609352827072144,130
39.609352827072144,364
39.609352827072144,220
39.609352827072144,106
39.71699523925781,57
39.71699523925781,261
39.71699523925781,317
39.71699523925781,102
39.71699523925781,324
39.71699523925781,421
39.71699523925781,78
39.71699523925781,122
39.71699523925781,18
39.71699523925781,358
39.816417932510376,153
39.816417932510376,45
39.816417932510376,129
39.816417932510376,754
39.816417932510376,212
39.816417932510376,45
39.816417932510376,97
39.816417932510376,341
39.816417932510376,6
39.816417932510376,600
39.91168713569641,23
39.91168713569641,102
39.91168713569641,106
39.91168713569641,93
39.91168713569641,169
39.91168713569641,528
39.91168713569641,205
39.91168713569641,275
39.91168713569641,43
39.91168713569641,132
40.02422046661377,274
40.02422046661377,29
40.02422046661377,314
40.02422046661377,156
40.02422046661377,366
40.02422046661377,299
40.02422046661377,25
40.02422046661377,1
40.02422046661377,96
40.02422046661377,25
40.02422046661377,210
40.12994146347046,39
40.12994146347046,24
40.12994146347046,80
40.12994146347046,28
40.12994146347046,67
40.12994146347046,145
40.12994146347046,12
40.12994146347046,311
40.12994146347046,6
40.12994146347046,133
40.23153018951416,201
40.23153018951416,82
40.23153018951416,46
40.23153018951416,0
40.23153018951416,1
40.23153018951416,71
40.23153018951416,95
40.23153018951416,45
40.23153018951416,11
40.23153018951416,204
40.33753943443298,128
40.33753943443298,5
40.33753943443298,0
40.33753943443298,0
40.33753943443298,11
40.33753943443298,16
40.33753943443298,27
40.33753943443298,19
40.33753943443298,35
40.33753943443298,1
40.43932104110718,31
40.43932104110718,8
40.43932104110718,4
40.43932104110718,0
40.43932104110718,0
40.43932104110718,14
40.43932104110718,43
40.43932104110718,25
40.43932104110718,175
40.44132590293884,19
40.533287048339844,8
40.533287048339844,0
40.533287048339844,13
40.533287048339844,129
40.533287048339844,13
40.533287048339844,15
40.533287048339844,0
40.533287048339844,4
40.533287048339844,0
40.533287048339844,73
40.636292695999146,278
40.636292695999146,20
40.63829779624939,9
40.63829779624939,4
40.63829779624939,22
40.63829779624939,3
40.63829779624939,1
40.63829779624939,0
40.63829779624939,0
40.73638343811035,1
40.73638343811035,175
40.73638343811035,3
40.73638343811035,217
40.73838829994202,13
40.73838829994202,0
40.73838829994202,284
40.73838829994202,111
40.73838829994202,110
40.73838829994202,18
40.83411407470703,0
40.83411407470703,0
40.83411407470703,27
40.83411407470703,37
40.83411407470703,0
40.83411407470703,16
40.83411407470703,0
40.83411407470703,0
40.83411407470703,23
40.83411407470703,143
40.93069839477539,1
40.93069839477539,15
40.93069839477539,4
40.93069839477539,0
40.93069839477539,12
40.93069839477539,0
40.93069839477539,138
40.93069839477539,22
40.93069839477539,11
41.025391817092896,9
41.025391817092896,0
41.025391817092896,39
41.025391817092896,116
41.025391817092896,6
41.025391817092896,1
41.025391817092896,8
41.025391817092896,20
41.025391817092896,44
41.025391817092896,67
41.1214759349823,23
41.1214759349823,6
41.1214759349823,0
41.1214759349823,0
41.1214759349823,27
41.1214759349823,77
41.1214759349823,0
41.1214759349823,15
41.1214759349823,1
41.1214759349823,0
41.216848611831665,0
41.216848611831665,0
41.216848611831665,0
41.216848611831665,0
41.216848611831665,0
41.216848611831665,5
41.216848611831665,37
41.216848611831665,0
41.216848611831665,3
41.311501026153564,13
41.311501026153564,0
41.311501026153564,10
41.311501026153564,0
41.311501026153564,12
41.311501026153564,1
41.311501026153564,0
41.311501026153564,0
41.311501026153564,1
41.311501026153564,2
41.41845464706421,12
41.41845464706421,38
41.41845464706421,7
41.41845464706421,5
41.41845464706421,7
41.41845464706421,0
41.41845464706421,2
41.41845464706421,1
41.41845464706421,4
41.51745319366455,0
41.51745319366455,8
41.51745319366455,0
41.51745319366455,0
41.51745319366455,23
41.51745319366455,2
41.51745319366455,5
41.51745319366455,2
41.51745319366455,0
41.51745319366455,9
41.61312794685364,0
41.61312794685364,0
41.61312794685364,0
41.61312794685364,0
41.61312794685364,0
41.61312794685364,0
41.61312794685364,1
41.61312794685364,0
41.61312794685364,0
41.61312794685364,0
41.72531580924988,0
41.72531580924988,0
41.72531580924988,0
41.72531580924988,0
41.72531580924988,0
41.72531580924988,0
41.72531580924988,1
41.72531580924988,2
41.72531580924988,0
41.72531580924988,0
41.8205451965332,0
41.8205451965332,0
41.8205451965332,0
41.8205451965332,5
41.8205451965332,0
41.8205451965332,0
41.8205451965332,0
41.8205451965332,0
41.8205451965332,0
41.8205451965332,0
41.93307590484619,0
41.93307590484619,0
41.93307590484619,0
41.93307590484619,0
41.93307590484619,0
41.93307590484619,0
41.93307590484619,3
41.93307590484619,3
41.93307590484619,0
41.93307590484619,0
41.93307590484619,0
42.028791427612305,0
42.028791427612305,0
42.028791427612305,0
42.028791427612305,2
42.028791427612305,0
42.028791427612305,0
42.028791427612305,0
42.028791427612305,0
42.028791427612305,12
42.028791427612305,0
42.135326862335205,0
42.135326862335205,0
42.135326862335205,0
42.135326862335205,0
42.135326862335205,0
42.135326862335205,0
42.135326862335205,5
42.135326862335205,3
42.135326862335205,0
42.23568773269653,0
42.23568773269653,0
42.23568773269653,0
42.23568773269653,0
42.23568773269653,0
42.23568773269653,0
42.23568773269653,8
42.23568773269653,0
42.23568773269653,0
42.23568773269653,0
42.33704423904419,0
42.33704423904419,0
42.33704423904419,0
42.33704423904419,2
42.33704423904419,0
42.33704423904419,0
42.33704423904419,0
42.33704423904419,0
42.33704423904419,0
42.33704423904419,3
42.436954498291016,0
42.436954498291016,0
42.436954498291016,0
42.436954498291016,0
42.436954498291016,0
42.436954498291016,0
42.436954498291016,0
42.436954498291016,0
42.436954498291016,73
42.436954498291016,1
42.53219151496887,0
42.53219151496887,0
42.53219151496887,0
42.53219151496887,0
42.53219151496887,0
42.53219151496887,0
42.53219151496887,0
42.53219151496887,0
42.53219151496887,0
42.53219151496887,0
42.62979245185852,0
42.63153910636902,6
42.63153910636902,0
42.63153910636902,0
42.63153910636902,0
42.63153910636902,1
42.63153910636902,0
42.63153910636902,0
42.63153910636902,0
42.72882056236267,0
42.72882056236267,0
42.72882056236267,0
42.72882056236267,2
42.72882056236267,0
42.72882056236267,0
42.72882056236267,2
42.72882056236267,0
42.72882056236267,0
42.72882056236267,0
42.82180404663086,13
42.82180404663086,4
42.82180404663086,0
42.82180404663086,10
42.82180404663086,0
42.82180404663086,3
42.82180404663086,0
42.82180404663086,2
42.82180404663086,1
42.91657996177673,0
42.91657996177673,0
42.91657996177673,0
42.91657996177673,0
42.91657996177673,0
42.91657996177673,0
42.91657996177673,0
42.91657996177673,0
42.91657996177673,0
42.91657996177673,0
43.012072801589966,0
43.012072801589966,0
43.012072801589966,0
43.012072801589966,0
43.012072801589966,0
43.012072801589966,0
43.012072801589966,1
43.012072801589966,0
43.012072801589966,3
43.10757780075073,0
43.10757780075073,0
43.10757780075073,0
43.10757780075073,0
43.10757780075073,0
43.10757780075073,7
43.10757780075073,0
43.10757780075073,0
43.10757780075073,0
43.10757780075073,10
43.211262702941895,0
43.211262702941895,0
43.211262702941895,0
43.211262702941895,36
43.211262702941895,1
43.211262702941895,0
43.211262702941895,0
43.211262702941895,0
43.211262702941895,0
43.29844117164612,0
43.29844117164612,0
43.29844117164612,3
43.29844117164612,0
43.29844117164612,0
43.29844117164612,0
43.29844117164612,0
43.29844117164612,0
43.29844117164612,0
43.29844117164612,0
43.403581619262695,0
43.403581619262695,4
43.403581619262695,4
43.403581619262695,79
43.403581619262695,0
43.403581619262695,0
43.40558624267578,0
43.40558624267578,0
43.40558624267578,0
43.50327444076538,5
43.50327444076538,6
43.50327444076538,17
43.50327444076538,0
43.50327444076538,0
43.50327444076538,0
43.50327444076538,0
43.50327444076538,0
43.50327444076538,0
43.50327444076538,0
43.600029706954956,0
43.600029706954956,0
43.600029706954956,0
43.600029706954956,0
43.600029706954956,0
43.600029706954956,0
43.600029706954956,0
43.600029706954956,0
43.600029706954956,0
43.600029706954956,0
43.695716381073,0
43.695716381073,0
43.695716381073,0
43.695716381073,0
43.695716381073,0
43.695716381073,0
43.695716381073,0
43.695716381073,0
43.695716381073,0
43.79080677032471,0
43.79080677032471,0
43.79080677032471,0
43.79080677032471,0
43.79080677032471,0
43.79080677032471,0
43.79080677032471,0
43.79080677032471,0
43.79080677032471,0
43.79080677032471,0
43.8858757019043,16
43.8858757019043,0
43.8858757019043,0
43.8858757019043,0
43.8858757019043,0
43.8858757019043,0
43.8858757019043,0
43.8858757019043,0
43.8858757019043,0
43.98901081085205,0
43.98901081085205,0
43.98901081085205,0
43.98901081085205,0
43.98901081085205,0
43.98901081085205,0
43.98901081085205,0
43.98901081085205,0
43.98901081085205,0
43.98901081085205,5
44.090994119644165,0
44.090994119644165,1
44.090994119644165,0
44.090994119644165,0
44.090994119644165,0
44.090994119644165,0
44.090994119644165,1
44.090994119644165,2
44.090994119644165,0
44.090994119644165,0
44.18621063232422,1
44.18621063232422,2
44.18621063232422,0
44.18621063232422,0
44.18621063232422,0
44.18621063232422,1
44.18621063232422,0
44.18621063232422,0
44.18621063232422,0
44.18621063232422,0
44.28252720832825,0
44.28252720832825,0
44.28252720832825,4
44.28252720832825,4
44.28252720832825,0
44.28252720832825,0
44.28252720832825,0
44.28252720832825,1
44.28252720832825,1
44.391483545303345,0
44.391483545303345,0
44.391483545303345,0
44.391483545303345,0
44.391483545303345,13
44.391483545303345,17
44.391483545303345,6
44.39249014854431,0
44.39249014854431,0
44.39249014854431,0
44.48784780502319,0
44.48784780502319,0
44.48784780502319,0
44.48784780502319,11
44.48784780502319,0
44.48784780502319,0
44.48784780502319,0
44.48784780502319,0
44.48784780502319,0
44.48784780502319,0
44.48784780502319,0
44.583938121795654,0
44.583938121795654,0
44.583938121795654,0
44.583938121795654,0
44.583938121795654,1
44.583938121795654,0
44.583938121795654,0
44.583938121795654,0
44.583938121795654,0
44.6951789855957,2
44.6951789855957,17
44.6951789855957,0
44.6951789855957,0
44.6951789855957,0
44.6951789855957,1
44.6951789855957,0
44.6951789855957,0
44.6951789855957,0
44.6951789855957,8
44.6951789855957,0
44.79010462760925,0
44.79010462760925,0
44.79010462760925,0
44.79010462760925,0
44.79010462760925,0
44.79010462760925,0
44.79010462760925,3
44.79010462760925,0
44.79010462760925,3
44.79010462760925,6
44.90161967277527,0
44.90161967277527,0
44.90161967277527,1
44.90161967277527,0
44.90161967277527,9
44.90161967277527,0
44.90161967277527,2
44.90161967277527,0
44.90161967277527,0
44.90161967277527,0
44.99663853645325,0
44.99663853645325,0
44.99663853645325,0
44.99663853645325,0
44.99663853645325,2
44.99663853645325,3
44.99663853645325,0
44.99663853645325,0
44.99663853645325,9
45.09196853637695,6
45.09196853637695,0
45.09196853637695,3
45.09196853637695,0
45.09196853637695,3
45.09196853637695,0
45.09196853637695,0
45.09196853637695,0
45.09196853637695,14
45.09196853637695,48
45.18711757659912,2
45.18711757659912,0
45.18711757659912,6
45.18711757659912,0
45.18711757659912,10
45.18711757659912,4
45.18711757659912,2
45.18711757659912,0
45.18711757659912,0
45.28361678123474,0
45.28361678123474,0
45.28361678123474,0
45.28361678123474,0
45.28361678123474,0
45.28361678123474,0
45.28361678123474,2
45.28361678123474,0
45.28361678123474,0
45.37855768203735,0
45.37855768203735,2
45.37855768203735,0
45.37855768203735,0
45.37855768203735,0
45.37855768203735,0
45.37855768203735,0
45.37855768203735,0
45.37855768203735,16
45.37855768203735,1
45.472790241241455,0
45.472790241241455,0
45.472790241241455,0
45.472790241241455,0
45.472790241241455,0
45.472790241241455,0
45.472790241241455,0
45.472790241241455,0
45.472790241241455,0
45.5688910484314,0
45.5688910484314,3
45.5688910484314,0
45.5688910484314,1
45.5688910484314,0
45.5688910484314,4
45.5688910484314,1
45.5688910484314,0
45.5688910484314,44
45.663421869277954,14
45.663421869277954,0
45.663421869277954,0
45.663421869277954,1
45.663421869277954,0
45.663421869277954,0
45.663421869277954,8
45.663421869277954,0
45.663421869277954,0
45.663421869277954,0
45.758930683135986,1
45.758930683135986,0
45.758930683135986,0
45.758930683135986,5
45.758930683135986,14
45.758930683135986,0
45.758930683135986,0
45.758930683135986,0
45.758930683135986,0
45.85431528091431,32
45.85431528091431,11
45.85431528091431,3
45.85431528091431,1
45.85431528091431,26
45.85431528091431,0
45.85431528091431,5
45.85431528091431,3
45.85431528091431,0
45.85431528091431,0
45.94956159591675,13
45.94956159591675,8
45.94956159591675,0
45.94956159591675,6
45.94956159591675,13
45.94956159591675,5
45.94956159591675,24
45.94956159591675,12
45.94956159591675,0
45.94956159591675,14
46.04502511024475,28
46.04502511024475,8
46.04502511024475,12
46.04502511024475,0
46.04502511024475,3
46.04502511024475,0
46.04502511024475,7
46.04502511024475,52
46.04502511024475,1
46.14054346084595,0
46.14054346084595,2
46.14054346084595,0
46.14054346084595,3
46.14054346084595,5
46.14054346084595,13
46.14054346084595,27
46.14054346084595,1
46.14054346084595,0
46.23569107055664,1
46.23569107055664,7
46.23569107055664,15
46.23569107055664,1
46.23569107055664,0
46.23569107055664,0
46.23569107055664,0
46.23569107055664,0
46.23569107055664,0
46.23569107055664,2
46.341357946395874,0
46.341357946395874,8
46.341357946395874,0
46.341357946395874,24
46.341357946395874,12
46.341357946395874,9
46.341357946395874,0
46.341357946395874,0
46.341357946395874,0
46.44190239906311,0
46.44190239906311,1
46.44190239906311,10
46.44190239906311,1
46.44190239906311,0
46.44190239906311,0
46.44190239906311,0
46.44190239906311,1
46.44190239906311,0
46.44190239906311,0
46.53707408905029,5
46.53707408905029,41
46.53707408905029,12
46.53707408905029,6
46.53707408905029,4
46.53707408905029,0
46.53707408905029,20
46.53707408905029,0
46.53707408905029,0
46.53707408905029,11
46.6481819152832,21
46.6481819152832,0
46.6481819152832,0
46.6481819152832,2
46.6481819152832,0
46.6481819152832,0
46.6481819152832,0
46.6481819152832,15
46.6481819152832,12
46.6481819152832,38
46.74338150024414,0
46.74338150024414,1
46.74338150024414,0
46.74338150024414,0
46.74338150024414,3
46.74338150024414,4
46.74338150024414,0
46.74338150024414,29
46.74338150024414,18
46.74338150024414,0
46.85427403450012,61
46.85427403450012,0
46.85427403450012,44
46.85427403450012,18
46.85427403450012,11
46.85427403450012,0
46.85427403450012,82
46.85427403450012,9
46.85427403450012,0
46.85427403450012,8
46.85427403450012,23
46.94960045814514,14
46.94960045814514,177
46.94960045814514,52
46.94960045814514,38
46.94960045814514,0
46.94960045814514,73
46.94960045814514,14
46.94960045814514,61
46.94960045814514,9
46.94960045814514,5
47.0605525970459,32
47.0605525970459,44
47.0605525970459,11
47.0605525970459,13
47.0605525970459,3
47.0605525970459,0
47.0605525970459,44
47.0605525970459,70
47.0605525970459,26
47.0605525970459,20
47.155755281448364,2
47.155755281448364,15
47.155755281448364,14
47.155755281448364,12
47.155755281448364,146
47.155755281448364,21
47.155755281448364,32
47.155755281448364,0
47.155755281448364,1
47.155755281448364,55
47.266672134399414,48
47.266672134399414,64
47.266672134399414,14
47.266672134399414,16
47.266672134399414,8
47.266672134399414,97
47.266672134399414,558
47.266672134399414,20
47.266672134399414,258
47.36213970184326,206
47.36213970184326,32
47.36213970184326,298
47.36213970184326,0
47.36213970184326,38
47.36213970184326,75
47.36213970184326,343
47.36213970184326,193
47.36213970184326,323
47.36213970184326,139
47.36213970184326,34
47.45946478843689,219
47.45946478843689,24
47.45946478843689,14
47.45946478843689,20
47.45946478843689,13
47.45946478843689,199
47.45946478843689,79
47.45946478843689,499
47.45946478843689,296
47.55374240875244,86
47.55374240875244,17
47.55374240875244,450
47.55374240875244,986
47.55374240875244,328
47.55374240875244,66
47.55374240875244,0
47.55374240875244,489
47.55374240875244,584
47.56956481933594,264
47.664727210998535,56
47.664727210998535,269
47.664727210998535,531
47.664727210998535,597
47.664727210998535,933
47.664727210998535,159
47.664727210998535,128
47.664727210998535,257
47.664727210998535,472
47.664727210998535,318
47.759644746780396,155
47.759644746780396,41
47.759644746780396,206
47.759644746780396,263
47.759644746780396,373
47.759644746780396,217
47.759644746780396,244
47.759644746780396,120
47.759644746780396,124
47.85496711730957,390
47.85496711730957,896
47.85496711730957,19
47.85496711730957,58
47.85496711730957,374
47.85496711730957,411
47.85496711730957,402
47.85496711730957,188
47.85496711730957,85
47.85496711730957,435
47.959892988204956,275
47.959892988204956,7
47.959892988204956,47
47.959892988204956,132
47.959892988204956,251
47.959892988204956,205
47.96165704727173,1023
47.96165704727173,164
47.96165704727173,275
48.04573845863342,638
48.04573845863342,103
48.04573845863342,448
48.04573845863342,112
48.04573845863342,183
48.04573845863342,35
48.04573845863342,35
48.04573845863342,387
48.04573845863342,148
48.04573845863342,240
48.156827211380005,595
48.156827211380005,6
48.156827211380005,116
48.156827211380005,271
48.156827211380005,536
48.156827211380005,188
48.156827211380005,381
48.156827211380005,497
48.156827211380005,159
48.156827211380005,64
48.25250601768494,117
48.25250601768494,144
48.25250601768494,1023
48.25250601768494,94
48.25250601768494,571
48.25250601768494,2
48.25250601768494,1023
48.25250601768494,104
48.25250601768494,24
48.34796619415283,500
48.34796619415283,206
48.34796619415283,159
48.34796619415283,737
48.34796619415283,22
48.34796619415283,253
48.34796619415283,0
48.34796619415283,478
48.34796619415283,159
48.34796619415283,179
48.44283628463745,92
48.44283628463745,87
48.44283628463745,44
48.44283628463745,59
48.44283628463745,117
48.44283628463745,83
48.44283628463745,248
48.44283628463745,266
48.44283628463745,52
48.44283628463745,38
48.549160957336426,39
48.549160957336426,0
48.549160957336426,105
48.549160957336426,102
48.549160957336426,408
48.54978108406067,700
48.54978108406067,291
48.54978108406067,261
48.54978108406067,8
48.6433629989624,146
48.6433629989624,58
48.6433629989624,193
48.6433629989624,286
48.6433629989624,713
48.6433629989624,10
48.6433629989624,313
48.6433629989624,30
48.6433629989624,262
48.73880338668823,10
48.73880338668823,132
48.73880338668823,225
48.73880338668823,365
48.73880338668823,397
48.73880338668823,207
48.73880338668823,24
48.73880338668823,336
48.73880338668823,50
48.83440947532654,26
48.83440947532654,43
48.83440947532654,399
48.83440947532654,188
48.83440947532654,93
48.83440947532654,65
48.83440947532654,324
48.83440947532654,388
48.83440947532654,44
48.83440947532654,175
48.93470573425293,212
48.93470573425293,46
48.93470573425293,48
48.93470573425293,144
48.93470573425293,300
48.93470573425293,68
48.93470573425293,103
48.93470573425293,148
48.93470573425293,140
48.93470573425293,3
49.03031039237976,305
49.03031039237976,137
49.03031039237976,406
49.03031039237976,111
49.03031039237976,99
49.03031039237976,51
49.03031039237976,83
49.03031039237976,223
49.03031039237976,53
49.135886669158936,149
49.135886669158936,867
49.135886669158936,289
49.135886669158936,181
49.135886669158936,80
49.135886669158936,119
49.135886669158936,30
49.135886669158936,50
49.135886669158936,296
49.135886669158936,373
49.23592782020569,119
49.23592782020569,235
49.23592782020569,88
49.23592782020569,40
49.23592782020569,505
49.23592782020569,120
49.23592782020569,254
49.23592782020569,391
49.23592782020569,314
49.23592782020569,111
49.332231283187866,21
49.332231283187866,58
49.332231283187866,84
49.332231283187866,139
49.332231283187866,66
49.332231283187866,389
49.332231283187866,29
49.332231283187866,640
49.332231283187866,214
49.332231283187866,27
49.437127351760864,0
49.437127351760864,295
49.437127351760864,126
49.437127351760864,120
49.437127351760864,95
49.437127351760864,1023
49.437127351760864,127
49.437127351760864,0
49.437127351760864,28
49.537497758865356,177
49.537497758865356,497
49.537497758865356,803
49.537497758865356,0
49.537497758865356,46
49.537497758865356,278
49.537497758865356,43
49.537497758865356,194
49.537497758865356,38
49.537497758865356,60
49.63375663757324,105
49.63375663757324,50
49.63375663757324,474
49.63375663757324,46
49.63375663757324,131
49.63375663757324,14
49.63375663757324,18
49.63375663757324,190
49.63375663757324,31
49.63375663757324,756
49.73189568519592,637
49.73189568519592,156
49.73189568519592,119
49.73189568519592,61
49.73189568519592,231
49.73189568519592,21
49.73189568519592,1
49.73189568519592,419
49.73189568519592,262
49.73189568519592,35
49.83882689476013,167
49.83882689476013,118
49.83882689476013,23
49.83882689476013,28
49.83882689476013,24
49.83882689476013,1
49.83882689476013,61
49.83882689476013,409
49.83882689476013,212
49.83882689476013,103
49.93458843231201,49
49.93458843231201,6
49.93458843231201,8
49.93458843231201,17
49.93458843231201,13
49.93458843231201,3
49.93458843231201,57
49.93458843231201,166
49.93458843231201,71
49.93458843231201,14
50.04014301300049,8
50.04014301300049,79
50.04014301300049,102
50.04014301300049,6
50.04014301300049,17
50.04014301300049,4
50.04014301300049,5
50.04014301300049,9
50.04014301300049,58
50.04014301300049,0
50.14066433906555,21
50.14066433906555,111
50.14066433906555,4
50.14066433906555,8
50.14066433906555,131
50.14066433906555,36
50.14066433906555,5
50.14066433906555,10
50.14066433906555,0
50.23560953140259,104
50.23560953140259,288
50.23560953140259,0
50.23560953140259,21
50.23560953140259,0
50.23560953140259,1
50.23560953140259,146
50.23560953140259,140
50.23560953140259,14
50.23560953140259,6
50.331568479537964,8
50.331568479537964,0
50.331568479537964,46
50.331568479537964,111
50.331568479537964,8
50.331568479537964,4
50.331568479537964,145
50.331568479537964,52
50.331568479537964,136
50.331568479537964,49
50.43711972236633,60
50.43711972236633,29
50.43711972236633,0
50.43711972236633,192
50.43711972236633,226
50.43711972236633,87
50.43711972236633,21
50.43711972236633,61
50.43711972236633,19
50.43711972236633,0
50.53210091590881,444
50.53210091590881,4
50.53210091590881,30
50.53210091590881,0
50.53210091590881,21
50.53210091590881,58
50.53210091590881,106
50.53210091590881,41
50.53210091590881,31
50.61654782295227,0
50.61654782295227,2
50.61654782295227,49
50.61654782295227,77
50.61654782295227,187
50.61654782295227,23
50.61654782295227,11
50.61654782295227,2
50.61654782295227,0
50.71154856681824,0
50.71154856681824,116
50.71154856681824,11
50.71154856681824,0
50.71154856681824,0
50.71154856681824,0
50.71154856681824,24
50.71154856681824,306
50.71154856681824,34
50.71154856681824,19
50.822826623916626,5
50.822826623916626,0
50.822826623916626,20
50.822826623916626,0
50.822826623916626,190
50.822826623916626,25
50.822826623916626,2
50.822826623916626,6
50.822826623916626,0
50.822826623916626,1
50.91733932495117,3
50.91733932495117,4
50.91733932495117,0
50.91733932495117,7
50.91733932495117,23
50.91733932495117,48
50.91733932495117,7
50.91733932495117,10
50.91733932495117,1
51.01208019256592,3
51.01208019256592,0
51.01208019256592,0
51.01208019256592,16
51.01208019256592,0
51.01208019256592,2
51.01208019256592,1
51.01208019256592,0
51.01208019256592,0
51.01208019256592,0
51.10736703872681,10
51.10736703872681,5
51.10736703872681,1
51.10736703872681,2
51.10736703872681,0
51.10736703872681,1
51.10736703872681,17
51.10736703872681,31
51.10736703872681,0
51.202500343322754,3
51.202500343322754,0
51.202500343322754,2
51.202500343322754,0
51.202500343322754,1
51.202500343322754,0
51.202500343322754,0
51.202500343322754,0
51.202500343322754,0
51.202500343322754,0
51.31384873390198,1
51.31384873390198,0
51.31384873390198,2
51.31384873390198,2
51.31384873390198,0
51.31384873390198,2
51.31384873390198,0
51.31384873390198,1
51.31384873390198,0
51.31384873390198,1
51.40901494026184,1
51.40901494026184,0
51.40901494026184,3
51.40901494026184,0
51.40901494026184,2
51.40901494026184,0
51.40901494026184,2
51.40901494026184,0
51.40901494026184,5
51.50415778160095,0
51.50415778160095,0
51.50415778160095,3
51.50415778160095,0
51.50415778160095,2
51.50415778160095,7
51.50415778160095,0
51.50415778160095,5
51.50415778160095,0
51.599173069000244,0
51.599173069000244,1
51.599173069000244,0
51.599173069000244,11
51.599173069000244,0
51.599173069000244,8
51.599173069000244,1
51.599173069000244,9
51.599173069000244,0
51.599173069000244,4
51.69432520866394,0
51.69432520866394,0
51.69432520866394,0
51.69432520866394,11
51.69432520866394,4
51.69432520866394,7
51.69432520866394,19
51.69432520866394,0
51.69432520866394,0
51.78920531272888,4
51.78920531272888,0
51.78920531272888,0
51.78920531272888,0
51.78920531272888,1
51.78920531272888,0
51.78920531272888,10
51.78920531272888,1
51.78920531272888,0
51.88452482223511,4
51.88452482223511,0
51.88452482223511,0
51.88452482223511,2
51.88452482223511,0
51.88452482223511,0
51.88452482223511,0
51.88452482223511,10
51.88452482223511,0
51.88452482223511,0
51.88452482223511,6
51.995659828186035,3
51.995659828186035,0
51.995659828186035,6
51.995659828186035,0
51.995659828186035,17
51.995659828186035,3
51.995659828186035,7
51.995659828186035,0
51.995659828186035,0
51.995659828186035,0
52.090670108795166,0
52.090670108795166,12
52.090670108795166,38
52.090670108795166,0
52.090670108795166,0
52.090670108795166,0
52.090670108795166,4
52.090670108795166,2
52.090670108795166,0
52.090670108795166,0
52.201375246047974,0
52.201375246047974,4
52.201375246047974,0
52.201375246047974,0
52.201375246047974,0
52.201375246047974,3
52.201375246047974,0
52.201375246047974,0
52.201375246047974,6
52.201375246047974,0
52.29614019393921,0
52.29614019393921,2
52.29614019393921,0
52.29614019393921,0
52.29614019393921,0
52.29614019393921,1
52.29614019393921,0
52.29614019393921,0
52.29614019393921,0
52.29614019393921,3
52.391289710998535,6
52.391289710998535,0
52.391289710998535,0
52.391289710998535,0
52.391289710998535,0
52.391289710998535,0
52.391289710998535,12
52.391289710998535,1
52.391289710998535,0
52.391289710998535,0
52.5025839805603,0
52.5025839805603,0
52.5025839805603,1
52.5025839805603,0
52.5025839805603,0
52.5025839805603,10
52.5025839805603,11
52.5025839805603,0
52.5025839805603,0
52.597495794296265,0
52.597495794296265,0
52.597495794296265,0
52.597495794296265,0
52.597495794296265,0
52.597495794296265,0
52.597495794296265,0
52.597495794296265,0
52.597495794296265,1
52.597495794296265,0
52.69237947463989,6
52.69237947463989,0
52.69237947463989,0
52.69237947463989,0
52.69237947463989,0
52.69237947463989,0
52.69237947463989,0
52.69237947463989,0
52.69237947463989,0
52.69237947463989,0
52.78759741783142,0
52.78759741783142,7
52.78759741783142,3
52.78759741783142,1
52.78759741783142,0
52.78759741783142,0
52.78759741783142,0
52.78759741783142,0
52.78759741783142,0
52.89338493347168,0
52.89338493347168,0
52.89338493347168,0
52.89338493347168,8
52.89338493347168,0
52.89338493347168,0
52.89338493347168,0
52.89338493347168,0
52.89338493347168,10
52.89338493347168,1
52.98873996734619,0
52.98873996734619,0
52.98873996734619,14
52.98873996734619,3
52.98873996734619,18
52.98873996734619,0
52.98873996734619,0
52.98873996734619,0
52.98873996734619,0
52.98873996734619,0
53.08364391326904,0
53.08364391326904,1
53.08364391326904,3
53.08364391326904,0
53.08364391326904,0
53.08364391326904,3
53.08364391326904,10
53.08364391326904,0
53.08364391326904,0
53.183972120285034,0
53.183972120285034,0
53.183972120285034,2
53.183972120285034,0
53.183972120285034,0
53.183972120285034,0
53.183972120285034,0
53.183972120285034,0
53.183972120285034,5
53.27980136871338,8
53.27980136871338,10
53.27980136871338,7
53.27980136871338,0
53.27980136871338,0
53.27980136871338,0
53.27980136871338,0
53.27980136871338,0
53.27980136871338,2
53.27980136871338,0
53.35865306854248,2
53.35865306854248,0
53.35865306854248,0
53.37442374229431,19
53.37442374229431,0
53.37442374229431,0
53.37442374229431,0
53.37442374229431,0
53.37442374229431,0
53.45398306846619,0
53.45398306846619,4
53.45398306846619,0
53.45398306846619,0
53.45398306846619,0
53.45398306846619,0
53.45398306846619,0
53.45398306846619,0
53.45398306846619,0
53.549423933029175,0
53.549423933029175,0
53.549423933029175,0
53.549423933029175,0
53.549423933029175,1
53.549423933029175,1
53.549423933029175,0
53.549423933029175,10
53.549423933029175,0
53.549423933029175,3
53.64452576637268,0
53.64452576637268,3
53.64452576637268,0
53.64452576637268,5
53.64452576637268,0
53.64452576637268,0
53.64452576637268,2
53.64452576637268,0
53.64452576637268,0
53.73984885215759,0
53.73984885215759,5
53.73984885215759,0
53.73984885215759,2
53.73984885215759,0
53.73984885215759,0
53.73984885215759,0
53.73984885215759,4
53.73984885215759,0
53.83558750152588,0
53.83558750152588,3
53.83558750152588,0
53.83558750152588,6
53.83558750152588,0
53.83558750152588,0
53.83558750152588,0
53.83558750152588,3
53.83558750152588,0
53.941420793533325,0
53.941420793533325,0
53.941420793533325,0
53.941420793533325,0
53.941420793533325,0
53.941420793533325,0
53.941420793533325,0
53.941420793533325,0
53.941420793533325,9
53.941420793533325,0
54.03646230697632,0
54.03646230697632,0
54.03646230697632,0
54.03646230697632,0
54.03646230697632,0
54.03646230697632,0
54.03646230697632,0
54.03646230697632,0
54.03646230697632,0
54.131574392318726,1
54.131574392318726,0
54.131574392318726,0
54.131574392318726,0
54.131574392318726,6
54.131574392318726,0
54.131574392318726,1
54.131574392318726,0
54.131574392318726,0
54.131574392318726,0
54.21660614013672,0
54.21660614013672,0
54.21660614013672,0
54.21660614013672,0
54.21660614013672,0
54.21660614013672,0
54.21660614013672,0
54.21660614013672,1
54.21660614013672,0
54.31211614608765,0
54.31211614608765,0
54.31211614608765,0
54.31211614608765,0
54.31211614608765,0
54.31211614608765,0
54.31211614608765,0
54.31211614608765,1
54.31211614608765,2
54.40730023384094,0
54.40730023384094,9
54.40730023384094,0
54.40730023384094,0
54.40730023384094,0
54.40730023384094,0
54.40730023384094,0
54.40730023384094,0
54.40730023384094,0
54.40730023384094,0
54.50205969810486,0
54.50205969810486,1
54.50205969810486,0
54.50205969810486,0
54.50205969810486,0
54.50205969810486,0
54.50205969810486,0
54.50205969810486,0
54.50205969810486,0
54.597474575042725,0
54.597474575042725,0
54.61324405670166,0
54.61324405670166,0
54.61324405670166,0
54.61324405670166,2
54.61324405670166,5
54.61324405670166,0
54.61324405670166,10
54.61324405670166,0
54.70806074142456,0
54.70806074142456,0
54.70806074142456,0
54.70806074142456,0
54.70806074142456,0
54.70806074142456,1
54.70806074142456,0
54.70806074142456,0
54.70806074142456,0
54.80327820777893,0
54.80327820777893,0
54.80327820777893,2
54.80327820777893,7
54.80327820777893,2
54.80327820777893,0
54.80327820777893,2
54.80327820777893,1
54.80327820777893,0
54.80327820777893,0
54.89868092536926,1
54.89868092536926,0
54.89868092536926,14
54.89868092536926,0
54.89868092536926,0
54.89868092536926,4
54.89868092536926,1
54.89868092536926,6
54.89868092536926,0
54.989201068878174,0
54.989201068878174,0
54.989201068878174,0
54.989201068878174,0
54.989201068878174,1
54.989201068878174,3
54.989201068878174,10
54.989201068878174,0
54.989201068878174,0
55.08929133415222,2
55.08929133415222,6
55.08929133415222,9
55.08929133415222,0
55.08929133415222,0
55.08929133415222,0
55.08929133415222,0
55.08929133415222,0
55.08929133415222,0
55.08929133415222,0
55.184566497802734,0
55.184566497802734,0
55.184566497802734,3
55.184566497802734,2
55.184566497802734,0
55.184566497802734,0
55.184566497802734,8
55.184566497802734,0
55.184566497802734,0
55.28096675872803,0
55.28096675872803,12
55.28096675872803,0
55.28096675872803,5
55.28096675872803,0
55.28096675872803,0
55.28096675872803,1
55.28096675872803,0
55.28096675872803,0
55.28096675872803,0
55.37626338005066,1
55.37626338005066,12
55.37626338005066,0
55.37626338005066,0
55.37626338005066,0
55.37626338005066,6
55.37626338005066,0
55.37626338005066,0
55.37626338005066,9
55.470651626586914,0
55.470651626586914,0
55.470651626586914,0
55.470651626586914,0
55.470651626586914,0
55.470651626586914,2
55.470651626586914,0
55.470651626586914,0
55.470651626586914,0
55.566078662872314,0
55.566078662872314,0
55.566078662872314,0
55.566078662872314,0
55.566078662872314,0
55.566078662872314,0
55.566078662872314,0
55.566078662872314,1
55.566078662872314,0
55.566078662872314,0
55.661261796951294,12
55.661261796951294,0
55.661261796951294,0
55.661261796951294,0
55.661261796951294,0
55.661261796951294,2
55.661261796951294,0
55.661261796951294,4
55.661261796951294,0
55.75633883476257,0
55.75633883476257,4
55.75633883476257,0
55.75633883476257,0
55.75633883476257,0
55.75633883476257,2
55.75633883476257,0
55.75633883476257,2
55.75633883476257,0
55.85127782821655,0
55.85127782821655,0
55.85127782821655,0
55.85127782821655,0
55.85127782821655,4
55.85127782821655,0
55.85127782821655,0
55.85127782821655,0
55.85127782821655,0
55.85127782821655,2
55.94678854942322,1
55.94678854942322,0
55.94678854942322,3
55.94678854942322,0
55.94678854942322,7
55.94678854942322,0
55.94678854942322,8
55.94678854942322,9
55.94678854942322,5
56.04180431365967,0
56.04180431365967,0
56.04180431365967,0
56.04180431365967,0
56.04180431365967,0
56.04180431365967,0
56.04180431365967,0
56.04180431365967,0
56.04180431365967,0
56.04180431365967,0
56.136698484420776,0
56.136698484420776,0
56.136698484420776,0
56.136698484420776,0
56.136698484420776,0
56.136698484420776,0
56.136698484420776,5
56.136698484420776,0
56.136698484420776,2
56.232746601104736,0
56.232746601104736,0
56.232746601104736,0
56.232746601104736,0
56.232746601104736,0
56.232746601104736,0
56.232746601104736,0
56.232746601104736,0
56.232746601104736,0
56.32752776145935,0
56.32752776145935,0
56.32752776145935,0
56.32752776145935,0
56.32752776145935,1
56.32752776145935,0
56.32752776145935,0
56.32752776145935,8
56.32752776145935,4
56.32752776145935,0
56.422016859054565,0
56.422016859054565,0
56.422016859054565,0
56.422016859054565,0
56.422016859054565,0
56.422016859054565,0
56.422016859054565,0
56.422016859054565,4
56.422016859054565,4
56.517199754714966,0
56.517199754714966,0
56.517199754714966,0
56.517199754714966,0
56.517199754714966,0
56.517199754714966,3
56.517199754714966,0
56.517199754714966,0
56.517199754714966,0
56.517199754714966,0
56.611979961395264,0
56.611979961395264,0
56.611979961395264,0
56.611979961395264,0
56.611979961395264,0
56.611979961395264,0
56.611979961395264,0
56.611979961395264,1
56.611979961395264,0
56.70726203918457,0
56.70726203918457,0
56.70726203918457,0
56.70726203918457,0
56.70726203918457,0
56.70726203918457,0
56.70726203918457,0
56.70726203918457,0
56.70726203918457,2
56.802905321121216,0
56.802905321121216,0
56.802905321121216,2
56.802905321121216,0
56.802905321121216,0
56.802905321121216,0
56.802905321121216,0
56.802905321121216,0
56.802905321121216,1
56.802905321121216,0
56.930487632751465,0
56.930487632751465,0
56.930487632751465,10
56.930487632751465,0
56.930487632751465,9
56.930487632751465,0
56.930487632751465,0
56.930487632751465,0
56.930487632751465,0
56.930487632751465,0
56.930487632751465,0
56.930487632751465,0
57.0412073135376,0
57.0412073135376,0
57.0412073135376,2
57.0412073135376,1
57.0412073135376,5
57.0412073135376,0
57.0412073135376,0
57.0412073135376,0
57.0412073135376,0
57.0412073135376,0
57.0412073135376,0
57.0412073135376,0
57.136672496795654,0
57.136672496795654,0
57.136672496795654,0
57.136672496795654,0
57.136672496795654,6
57.136672496795654,0
57.136672496795654,4
57.136672496795654,0
57.136672496795654,0
57.23291850090027,0
57.23291850090027,0
57.23291850090027,0
57.23291850090027,0
57.23291850090027,0
57.23291850090027,0
57.23291850090027,0
57.23291850090027,0
57.23291850090027,0
57.32673740386963,2
57.32673740386963,0
57.32673740386963,0
57.32673740386963,0
57.32673740386963,0
57.32673740386963,0
57.32673740386963,0
57.32673740386963,2
57.32673740386963,0
57.32673740386963,0
57.43253827095032,0
57.43253827095032,0
57.43253827095032,0
57.43253827095032,0
57.43253827095032,0
57.43253827095032,0
57.43253827095032,0
57.43253827095032,4
57.43253827095032,0
57.52684736251831,0
57.52684736251831,0
57.52684736251831,4
57.52684736251831,10
57.52863621711731,0
57.52863621711731,0
57.52863621711731,0
57.52863621711731,12
57.52863621711731,0
57.52863621711731,0
57.61239433288574,0
57.61239433288574,0
57.61239433288574,3
57.61239433288574,0
57.61239433288574,0
57.61239433288574,0
57.61239433288574,3
57.61239433288574,0
57.61239433288574,0
57.70797371864319,0
57.70797371864319,1
57.70797371864319,0
57.70797371864319,0
57.70797371864319,0
57.70797371864319,1
57.70797371864319,5
57.70797371864319,0
57.70797371864319,1
57.80353498458862,0
57.80353498458862,0
57.80353498458862,0
57.80353498458862,0
57.80353498458862,0
57.80353498458862,0
57.80353498458862,0
57.80353498458862,0
57.80353498458862,7
57.80353498458862,5
57.89883065223694,0
57.89883065223694,9
57.89883065223694,1
57.89883065223694,0
57.89883065223694,0
57.89883065223694,0
57.89883065223694,0
57.89883065223694,0
57.89883065223694,0
57.99420428276062,0
57.99420428276062,0
57.99420428276062,0
57.99420428276062,0
57.99420428276062,0
57.99420428276062,0
57.99420428276062,0
57.99420428276062,0
57.99420428276062,5
57.99420428276062,0
58.08944368362427,1
58.08944368362427,0
58.08944368362427,0
58.08944368362427,2
58.08944368362427,0
58.08944368362427,0
58.08944368362427,0
58.08944368362427,0
58.08944368362427,0
58.18458795547485,2
58.18458795547485,4
58.18458795547485,0
58.18458795547485,0
58.18458795547485,0
