Time,EMG
0.9139482975006104,48
0.9241745471954346,64
0.9241745471954346,34
0.9241745471954346,0
0.9241745471954346,0
0.9241745471954346,11
0.9241745471954346,0
0.9241745471954346,0
0.9241745471954346,13
0.9241745471954346,10
0.9241745471954346,0
0.9241745471954346,0
0.9241745471954346,11
0.9241745471954346,24
0.9241745471954346,1
0.9241745471954346,6
0.9241745471954346,0
0.9241745471954346,0
0.9241745471954346,2
0.9241745471954346,0
0.9241745471954346,0
0.9241745471954346,0
0.9241745471954346,1
0.9241745471954346,5
0.9241745471954346,8
0.9241745471954346,6
0.9241745471954346,2
0.9241745471954346,23
0.9241745471954346,11
0.9241745471954346,17
0.9241745471954346,33
0.9241745471954346,29
0.9241745471954346,10
0.9241745471954346,0
0.9241745471954346,4
0.9241745471954346,34
0.9241745471954346,17
0.9241745471954346,35
0.9241745471954346,49
0.9241745471954346,45
0.9241745471954346,20
0.9241745471954346,36
0.9241745471954346,0
0.9241745471954346,23
0.9241745471954346,15
0.9241745471954346,39
0.9241745471954346,8
0.9241745471954346,69
0.9241745471954346,8
0.9241745471954346,50
0.9241745471954346,9
0.9241745471954346,19
0.9241745471954346,5
0.9241745471954346,14
0.9241745471954346,4
0.9241745471954346,13
0.9241745471954346,46
0.9241745471954346,0
0.9241745471954346,0
0.9241745471954346,0
0.9241745471954346,60
0.9241745471954346,58
0.9241745471954346,52
0.9241745471954346,36
0.9241745471954346,0
0.9241745471954346,5
0.9241745471954346,2
0.9241745471954346,2
0.9241745471954346,0
0.9241745471954346,0
0.9241745471954346,0
0.9241745471954346,21
0.9241745471954346,33
0.9241745471954346,34
0.9241745471954346,47
0.9241745471954346,5
0.9241745471954346,11
0.9241745471954346,20
0.9241745471954346,65
0.9241745471954346,0
0.9241745471954346,47
0.9241745471954346,24
0.9241745471954346,41
0.9241745471954346,0
0.9241745471954346,1
0.9241745471954346,15
0.9241745471954346,44
0.9241745471954346,9
0.9241745471954346,32
0.9241745471954346,0
0.9241745471954346,1
0.9241745471954346,36
0.9241745471954346,63
0.9241745471954346,60
0.9241745471954346,33
0.9241745471954346,6
0.9241745471954346,27
0.9241745471954346,7
0.9241745471954346,9
0.9241745471954346,3
0.9241745471954346,8
0.9241745471954346,10
0.9293298721313477,8
0.9293298721313477,1
0.9293298721313477,19
0.9293298721313477,1
0.9293298721313477,4
0.9293298721313477,28
0.9293298721313477,14
0.9293298721313477,0
0.9293298721313477,0
0.9293298721313477,0
0.9293298721313477,0
0.9293298721313477,0
0.9293298721313477,8
0.9293298721313477,11
0.9293298721313477,0
0.9293298721313477,10
0.9293298721313477,10
0.9301836490631104,16
0.9301836490631104,10
0.9301836490631104,13
0.9301836490631104,8
0.9301836490631104,13
0.9301836490631104,9
0.9301836490631104,30
0.9301836490631104,12
0.9301836490631104,35
0.9301836490631104,27
0.9301836490631104,33
0.9301836490631104,0
0.9301836490631104,32
0.9301836490631104,9
0.9301836490631104,38
0.9301836490631104,15
0.9301836490631104,35
0.9301836490631104,12
0.9301836490631104,24
0.9301836490631104,7
0.9301836490631104,25
1.22310209274292,10
1.22310209274292,20
1.22310209274292,8
1.22310209274292,13
1.22310209274292,8
1.22310209274292,13
1.22310209274292,4
1.22310209274292,0
1.22310209274292,0
1.22310209274292,0
1.22310209274292,11
1.22310209274292,2
1.22310209274292,17
1.22310209274292,2
1.22310209274292,0
1.22310209274292,0
1.22310209274292,0
1.22310209274292,7
1.22310209274292,9
1.22310209274292,13
1.22310209274292,8
1.22310209274292,33
1.22310209274292,11
1.22310209274292,5
1.22310209274292,13
1.22310209274292,12
1.2274959087371826,24
1.2274959087371826,5
1.2274959087371826,16
1.4775373935699463,68
1.4775373935699463,29
1.4775373935699463,10
1.4775373935699463,40
1.4775373935699463,3
1.4784440994262695,36
1.4784440994262695,6
1.4784440994262695,31
1.4784440994262695,1
1.4784440994262695,21
1.4784440994262695,11
1.4784440994262695,31
1.4784440994262695,5
1.4784440994262695,14
1.4784440994262695,3
1.4784440994262695,4
1.4784440994262695,3
1.4784440994262695,18
1.4784440994262695,9
1.4784440994262695,31
1.4784440994262695,10
1.4784440994262695,2
1.4784440994262695,2
1.4784440994262695,0
1.4784440994262695,20
1.658785343170166,0
1.658785343170166,8
1.658785343170166,1
1.664686679840088,5
1.664686679840088,0
1.664686679840088,12
1.664686679840088,1
1.6653778553009033,0
1.6653778553009033,9
1.6653778553009033,0
1.6653778553009033,3
1.6653778553009033,22
1.6653778553009033,6
1.6653778553009033,6
1.6653778553009033,3
1.6653778553009033,11
1.6653778553009033,0
1.6653778553009033,10
1.8234505653381348,19
1.8234505653381348,49
1.8234505653381348,6
1.8234505653381348,37
1.8234505653381348,19
1.8234505653381348,38
1.8234505653381348,1
1.8234505653381348,29
1.8234505653381348,29
1.8234505653381348,31
1.8234505653381348,6
1.8234505653381348,27
1.8234505653381348,0
1.8234505653381348,38
1.8234505653381348,49
1.8234505653381348,35
1.9342658519744873,93
1.9342658519744873,0
1.9342658519744873,15
1.9342658519744873,26
1.9342658519744873,12
1.9342658519744873,13
1.9342658519744873,14
1.9342658519744873,10
1.9342658519744873,8
1.9342658519744873,1
1.9342658519744873,1
2.028986930847168,0
2.028986930847168,0
2.028986930847168,6
2.028986930847168,0
2.028986930847168,33
2.028986930847168,331
2.028986930847168,0
2.028986930847168,0
2.028986930847168,9
2.13549542427063,11
2.13549542427063,17
2.13549542427063,9
2.13549542427063,13
2.13549542427063,9
2.13549542427063,59
2.13549542427063,60
2.13549542427063,28
2.13549542427063,39
2.13549542427063,0
2.2307870388031006,20
2.2307870388031006,0
2.2307870388031006,102
2.2307870388031006,5
2.2307870388031006,79
2.2307870388031006,4
2.2307870388031006,59
2.2307870388031006,32
2.2307870388031006,72
2.2307870388031006,67
2.3324904441833496,19
2.3324904441833496,15
2.3324904441833496,16
2.3324904441833496,5
2.3324904441833496,7
2.3324904441833496,11
2.3324904441833496,21
2.3324904441833496,17
2.3324904441833496,26
2.44246506690979,0
2.44246506690979,35
2.44246506690979,0
2.44246506690979,13
2.44246506690979,23
2.44246506690979,3
2.44246506690979,0
2.44246506690979,0
2.44246506690979,40
2.44246506690979,33
2.44246506690979,0
2.537416696548462,0
2.537416696548462,35
2.537416696548462,9
2.537416696548462,11
2.537416696548462,1
2.537416696548462,55
2.537416696548462,9
2.537416696548462,0
2.537416696548462,0
2.537416696548462,0
2.537416696548462,31
2.6485023498535156,220
2.6485023498535156,10
2.6485023498535156,32
2.6485023498535156,54
2.6485023498535156,20
2.6485023498535156,0
2.6485023498535156,15
2.6485023498535156,1
2.6485023498535156,20
2.6485023498535156,79
2.7611992359161377,47
2.7611992359161377,45
2.7611992359161377,239
2.7611992359161377,21
2.7611992359161377,1
2.7611992359161377,4
2.7611992359161377,24
2.7611992359161377,55
2.7611992359161377,99
2.7611992359161377,15
2.8559958934783936,0
2.8559958934783936,32
2.8559958934783936,30
2.8559958934783936,56
2.8559958934783936,1
2.8559958934783936,0
2.8559958934783936,4
2.8559958934783936,32
2.8559958934783936,26
2.8559958934783936,34
2.967651844024658,38
2.967651844024658,101
2.967651844024658,20
2.967651844024658,71
2.967651844024658,49
2.967651844024658,72
2.967651844024658,52
2.967651844024658,81
2.967651844024658,111
2.967651844024658,150
3.0635130405426025,18
3.0635130405426025,59
3.0635130405426025,4
3.0635130405426025,61
3.0635130405426025,23
3.0635130405426025,105
3.0635130405426025,54
3.0635130405426025,62
3.0635130405426025,6
3.0635130405426025,61
3.158911943435669,0
3.158911943435669,22
3.158911943435669,1
3.158911943435669,0
3.158911943435669,7
3.158911943435669,0
3.158911943435669,26
3.158911943435669,0
3.158911943435669,2
3.158911943435669,4
3.271001100540161,16
3.271001100540161,37
3.271001100540161,34
3.271001100540161,38
3.271001100540161,40
3.271001100540161,59
3.271001100540161,39
3.271001100540161,74
3.271001100540161,54
3.271001100540161,66
3.367716073989868,62
3.367716073989868,73
3.367716073989868,47
3.367716073989868,225
3.367716073989868,94
3.367716073989868,131
3.367716073989868,83
3.367716073989868,40
3.367716073989868,90
3.367716073989868,55
3.46174693107605,81
3.46174693107605,49
3.46174693107605,81
3.46174693107605,8
3.46174693107605,96
3.46174693107605,0
3.46174693107605,39
3.46174693107605,41
3.46174693107605,79
3.46174693107605,10
3.5566442012786865,55
3.5566442012786865,31
3.5566442012786865,41
3.5566442012786865,12
3.5566442012786865,21
3.5566442012786865,0
3.5566442012786865,86
3.5566442012786865,12
3.5566442012786865,8
3.652005195617676,5
3.652005195617676,8
3.652005195617676,25
3.652005195617676,36
3.652005195617676,85
3.652005195617676,74
3.652005195617676,20
3.652005195617676,49
3.652005195617676,50
3.652005195617676,63
3.7479851245880127,91
3.7479851245880127,47
3.7479851245880127,52
3.7479851245880127,68
3.7479851245880127,74
3.7479851245880127,67
3.7479851245880127,59
3.7479851245880127,55
3.7479851245880127,62
3.8600668907165527,50
3.8600668907165527,64
3.8600668907165527,40
3.8600668907165527,62
3.8600668907165527,38
3.8600668907165527,81
3.8600668907165527,55
3.8600668907165527,88
3.8600668907165527,123
3.8600668907165527,80
3.9544320106506348,13
3.9544320106506348,35
3.9564409255981445,23
3.9564409255981445,48
3.9564409255981445,19
3.9564409255981445,38
3.9564409255981445,15
3.9564409255981445,25
3.9564409255981445,1
4.05009651184082,7
4.05009651184082,20
4.05009651184082,31
4.05009651184082,4
4.05009651184082,0
4.05009651184082,1
4.05009651184082,1
4.05009651184082,0
4.05009651184082,17
4.05009651184082,11
4.130143880844116,16
4.130143880844116,18
4.130143880844116,11
4.130143880844116,10
4.130143880844116,19
4.146240711212158,7
4.146240711212158,34
4.146240711212158,18
4.146240711212158,62
4.241262435913086,38
4.243269443511963,46
4.243269443511963,49
4.243269443511963,55
4.243269443511963,56
4.243269443511963,55
4.243269443511963,81
4.243269443511963,54
4.243269443511963,75
4.3367860317230225,51
4.3367860317230225,66
4.3367860317230225,55
4.3367860317230225,73
4.3367860317230225,34
4.3367860317230225,70
4.3367860317230225,29
4.3367860317230225,54
4.3367860317230225,35
4.338792562484741,38
4.438339471817017,17
4.438339471817017,46
4.438339471817017,9
4.438339471817017,25
4.438339471817017,6
4.438339471817017,7
4.438339471817017,0
4.438339471817017,0
4.438339471817017,8
4.438339471817017,1
4.537262678146362,6
4.537262678146362,8
4.537262678146362,7
4.537262678146362,30
4.537262678146362,7
4.53926944732666,35
4.53926944732666,27
4.53926944732666,54
4.53926944732666,36
4.639294862747192,71
4.639294862747192,52
4.639294862747192,69
4.639294862747192,63
4.639294862747192,89
4.639294862747192,65
4.639294862747192,77
4.639294862747192,49
4.639294862747192,60
4.639294862747192,65
4.740079164505005,14
4.740079164505005,73
4.740079164505005,60
4.740079164505005,85
4.740079164505005,52
4.740079164505005,73
4.740079164505005,42
4.740079164505005,73
4.740079164505005,27
4.740079164505005,5
4.83931565284729,28
4.83931565284729,10
4.83931565284729,16
4.83931565284729,62
4.83931565284729,27
4.83931565284729,49
4.83931565284729,19
4.83931565284729,34
4.83931565284729,4
4.83931565284729,3
4.938083171844482,2
4.938083171844482,0
4.938083171844482,5
4.938083171844482,12
4.938083171844482,18
4.938083171844482,0
4.938083171844482,43
4.938083171844482,27
4.938083171844482,34
5.03661847114563,39
5.03661847114563,29
5.03661847114563,76
5.03661847114563,27
5.03661847114563,61
5.03661847114563,50
5.03661847114563,75
5.03661847114563,62
5.03661847114563,85
5.03661847114563,56
5.135370969772339,66
5.135370969772339,58
5.135370969772339,66
5.135370969772339,75
5.135370969772339,71
5.135370969772339,100
5.135370969772339,60
5.135370969772339,86
5.135370969772339,58
5.135370969772339,79
5.2356116771698,51
5.2356116771698,76
5.2356116771698,43
5.2356116771698,62
5.2356116771698,37
5.2356116771698,49
5.2356116771698,25
5.2356116771698,41
5.2356116771698,17
5.2356116771698,45
5.335113048553467,15
5.335113048553467,27
5.335113048553467,2
5.335113048553467,0
5.335113048553467,0
5.335113048553467,0
5.335113048553467,15
5.335113048553467,7
5.335113048553467,3
5.431650876998901,21
5.431650876998901,19
5.431650876998901,42
5.431650876998901,27
5.431650876998901,42
5.431650876998901,26
5.431650876998901,63
5.431650876998901,48
5.431650876998901,72
5.431650876998901,48
5.540475368499756,76
5.540475368499756,71
5.540475368499756,80
5.540475368499756,64
5.540475368499756,61
5.540475368499756,63
5.540475368499756,74
5.540475368499756,80
5.540475368499756,52
5.540475368499756,101
5.640518665313721,58
5.640518665313721,93
5.640518665313721,57
5.640518665313721,93
5.640518665313721,44
5.640518665313721,66
5.640518665313721,20
5.640518665313721,31
5.640518665313721,29
5.640518665313721,50
5.733546733856201,27
5.733546733856201,50
5.733546733856201,16
5.733546733856201,39
5.733546733856201,3
5.733546733856201,12
5.733546733856201,11
5.733546733856201,0
5.733546733856201,3
5.733546733856201,8
5.845201253890991,17
5.845201253890991,14
5.845201253890991,13
5.845201253890991,48
5.845201253890991,27
5.845201253890991,45
5.845201253890991,44
5.845201253890991,66
5.845201253890991,50
5.845201253890991,65
5.946263074874878,163
5.946263074874878,124
5.946263074874878,71
5.946263074874878,76
5.946263074874878,38
5.946263074874878,60
5.946263074874878,71
5.946263074874878,62
5.946263074874878,71
5.946263074874878,56
6.0471742153167725,103
6.0471742153167725,82
6.0471742153167725,93
6.0471742153167725,54
6.0471742153167725,86
6.0471742153167725,52
6.049180030822754,73
6.049180030822754,38
6.049180030822754,78
6.049180030822754,37
6.150755405426025,50
6.150755405426025,50
6.150755405426025,48
6.150755405426025,15
6.150755405426025,38
6.150755405426025,17
6.150755405426025,15
6.150755405426025,0
6.150755405426025,10
6.150755405426025,8
6.2444703578948975,18
6.2444703578948975,3
6.2444703578948975,7
6.2444703578948975,23
6.2444703578948975,38
6.2444703578948975,26
6.2444703578948975,57
6.2444703578948975,33
6.2444703578948975,79
6.2444703578948975,61
6.3538103103637695,94
6.3538103103637695,43
6.3538103103637695,55
6.3538103103637695,55
6.3538103103637695,75
6.3538103103637695,74
6.3538103103637695,84
6.3538103103637695,60
6.3538103103637695,71
6.3538103103637695,68
6.448193073272705,72
6.448193073272705,76
6.448193073272705,70
6.448193073272705,101
6.448193073272705,64
6.448193073272705,118
6.448193073272705,65
6.448193073272705,49
6.448193073272705,53
6.448193073272705,74
6.555299520492554,35
6.555299520492554,73
6.555299520492554,29
6.555299520492554,41
6.555299520492554,35
6.555299520492554,39
6.557304620742798,11
6.557304620742798,14
6.557304620742798,5
6.557304620742798,0
6.655340671539307,0
6.655340671539307,4
6.655340671539307,0
6.655340671539307,9
6.655340671539307,0
6.655340671539307,34
6.655340671539307,9
6.655340671539307,50
6.655340671539307,43
6.655340671539307,42
6.749749183654785,11
6.749749183654785,74
6.749749183654785,36
6.749749183654785,69
6.749749183654785,64
6.749749183654785,70
6.749749183654785,55
6.749749183654785,92
6.749749183654785,67
6.849913120269775,72
6.849913120269775,58
6.849913120269775,56
6.849913120269775,73
6.851919651031494,64
6.851919651031494,112
6.851919651031494,75
6.851919651031494,85
6.851919651031494,62
6.851919651031494,97
6.9533867835998535,58
6.9533867835998535,84
6.9533867835998535,59
6.9533867835998535,56
6.9533867835998535,26
6.9533867835998535,55
6.9533867835998535,20
6.9533867835998535,48
6.9533867835998535,17
6.9533867835998535,40
7.050797939300537,8
7.050797939300537,23
7.050797939300537,0
7.050797939300537,19
7.050797939300537,4
7.050797939300537,0
7.050797939300537,8
7.050797939300537,10
7.050797939300537,3
7.050797939300537,23
7.148704528808594,24
7.148704528808594,40
7.148704528808594,42
7.148704528808594,46
7.148704528808594,25
7.148704528808594,77
7.148704528808594,49
7.148704528808594,62
7.148704528808594,59
7.253889322280884,78
7.253889322280884,139
7.253889322280884,154
7.253889322280884,119
7.253889322280884,57
7.253889322280884,79
7.253889322280884,67
7.253889322280884,81
7.253889322280884,90
7.253889322280884,100
7.355390787124634,53
7.355390787124634,77
7.355390787124634,57
7.355390787124634,188
7.355390787124634,38
7.355390787124634,77
7.355390787124634,38
7.355390787124634,0
7.355390787124634,37
7.355390787124634,62
7.4561238288879395,28
7.4561238288879395,48
7.4561238288879395,18
7.4561238288879395,29
7.4561238288879395,91
7.4561238288879395,372
7.4561238288879395,16
7.4561238288879395,5
7.4561238288879395,25
7.4561238288879395,2
7.5554039478302,10
7.5554039478302,0
7.5554039478302,56
7.5554039478302,56
7.5554039478302,37
7.5554039478302,71
7.5554039478302,103
7.5554039478302,123
7.5554039478302,2
7.557409286499023,83
7.656007528305054,80
7.656007528305054,102
7.656007528305054,172
7.656007528305054,106
7.656007528305054,64
7.656007528305054,72
7.656007528305054,147
7.656007528305054,76
7.656007528305054,78
7.656007528305054,11
7.757103443145752,158
7.757103443145752,56
7.757103443145752,100
7.757103443145752,0
7.757103443145752,106
7.759108543395996,201
7.759108543395996,213
7.759108543395996,615
7.759108543395996,172
7.759108543395996,6
7.847317457199097,111
7.847317457199097,70
7.847317457199097,68
7.847317457199097,123
7.847317457199097,332
7.847317457199097,105
7.847317457199097,420
7.847317457199097,162
7.847317457199097,38
7.956073760986328,101
7.956073760986328,148
7.956073760986328,55
7.956073760986328,20
7.956073760986328,40
7.956073760986328,9
7.956073760986328,250
7.956073760986328,454
7.9580793380737305,154
7.9580793380737305,88
8.049729585647583,86
8.049729585647583,272
8.049729585647583,183
8.049729585647583,790
8.049729585647583,75
8.049729585647583,31
8.049729585647583,156
8.049729585647583,96
8.049729585647583,207
8.049729585647583,167
8.154737710952759,395
8.154737710952759,21
8.154737710952759,343
8.154737710952759,210
8.154737710952759,188
8.154737710952759,60
8.154737710952759,200
8.154737710952759,397
8.154737710952759,170
8.257580995559692,51
8.257580995559692,133
8.257580995559692,95
8.257580995559692,88
8.257580995559692,38
8.257580995559692,97
8.257580995559692,9
8.257580995559692,268
8.257580995559692,331
8.257580995559692,96
8.3499436378479,23
8.3499436378479,442
8.3499436378479,107
8.3499436378479,179
8.3499436378479,132
8.3499436378479,554
8.3499436378479,114
8.3499436378479,95
8.3499436378479,296
8.3499436378479,629
8.458536624908447,199
8.458536624908447,401
8.458536624908447,121
8.458536624908447,41
8.458536624908447,180
8.458536624908447,98
8.460284233093262,294
8.460284233093262,139
8.460284233093262,471
8.460284233093262,251
8.559738874435425,318
8.559738874435425,102
8.559738874435425,195
8.559738874435425,19
8.559738874435425,54
8.559738874435425,96
8.559738874435425,95
8.559738874435425,23
8.559738874435425,4
8.559738874435425,97
8.660892248153687,183
8.660892248153687,126
8.660892248153687,190
8.66289758682251,122
8.66289758682251,53
8.66289758682251,171
8.66289758682251,946
8.66289758682251,410
8.66289758682251,43
8.66289758682251,1
8.762083292007446,198
8.762083292007446,217
8.762083292007446,636
8.762083292007446,163
8.762083292007446,86
8.762083292007446,61
8.762083292007446,462
8.762083292007446,22
8.762083292007446,7
8.762083292007446,232
8.86085057258606,270
8.86085057258606,342
8.86085057258606,5
8.86085057258606,53
8.86085057258606,13
8.86085057258606,70
8.86085057258606,83
8.862855911254883,360
8.862855911254883,55
8.962555408477783,132
8.962555408477783,7
8.962555408477783,293
8.962555408477783,181
8.962555408477783,153
8.962555408477783,277
8.962555408477783,125
8.962555408477783,19
8.962555408477783,142
8.962555408477783,1
9.066064596176147,23
9.066064596176147,145
9.066064596176147,241
9.066064596176147,204
9.066064596176147,12
9.066064596176147,239
9.066064596176147,39
9.066064596176147,88
9.066064596176147,58
9.066064596176147,0
9.159953355789185,0
9.159953355789185,108
9.159953355789185,185
9.159953355789185,265
9.159953355789185,126
9.159953355789185,188
9.159953355789185,223
9.159953355789185,86
9.159953355789185,190
9.159953355789185,347
9.268656253814697,20
9.268656253814697,94
9.268656253814697,0
9.268656253814697,118
9.270661354064941,16
9.270661354064941,115
9.270661354064941,77
9.270661354064941,183
9.270661354064941,63
9.270661354064941,59
9.371927261352539,34
9.371927261352539,134
9.371927261352539,62
9.371927261352539,206
9.371927261352539,14
9.371927261352539,88
9.371927261352539,1022
9.371927261352539,153
9.371927261352539,36
9.371927261352539,9
9.47161340713501,11
9.47161340713501,148
9.47161340713501,21
9.47161340713501,28
9.47161340713501,342
9.47161340713501,31
9.47161340713501,2
9.473618984222412,62
9.473618984222412,81
9.473618984222412,29
9.573224306106567,132
9.573224306106567,83
9.573224306106567,243
9.573966264724731,613
9.573966264724731,177
9.573966264724731,29
9.573966264724731,214
9.573966264724731,31
9.573966264724731,90
9.573966264724731,67
9.6712167263031,139
9.6712167263031,24
9.6712167263031,129
9.6712167263031,23
9.6712167263031,276
9.6712167263031,132
9.67322587966919,96
9.67322587966919,33
9.67322587966919,201
9.771595001220703,513
9.771595001220703,84
9.771595001220703,101
9.771595001220703,95
9.771595001220703,0
9.771595001220703,176
9.771595001220703,34
9.771595001220703,59
9.771595001220703,99
9.771595001220703,286
9.870891571044922,112
9.870891571044922,519
9.870891571044922,116
9.870891571044922,51
9.870891571044922,160
9.870891571044922,188
9.870891571044922,344
9.870891571044922,34
9.870891571044922,294
9.870891571044922,0
9.968713998794556,84
9.968713998794556,39
9.968713998794556,2
9.968713998794556,96
9.968713998794556,231
9.968713998794556,270
9.968713998794556,131
9.968713998794556,422
9.968713998794556,180
9.968713998794556,44
10.074519157409668,169
10.074519157409668,277
10.074519157409668,44
10.074519157409668,37
10.074519157409668,21
10.074519157409668,0
10.074519157409668,143
10.074519157409668,448
10.074519157409668,175
10.074519157409668,0
10.158234357833862,71
10.174168825149536,57
10.174168825149536,63
10.174168825149536,217
10.174562454223633,46
10.174562454223633,58
10.174562454223633,38
10.174562454223633,53
10.174562454223633,90
10.272802829742432,146
10.274809122085571,15
10.274809122085571,51
10.274809122085571,69
10.274809122085571,180
10.274809122085571,26
10.274809122085571,79
10.274809122085571,67
10.274809122085571,130
10.274809122085571,110
10.375463962554932,177
10.375463962554932,189
10.375463962554932,285
10.375463962554932,54
10.375463962554932,83
10.375463962554932,161
10.375463962554932,154
10.375463962554932,1
10.375463962554932,149
10.375463962554932,145
10.471717357635498,188
10.471717357635498,83
10.471717357635498,210
10.471717357635498,209
10.471717357635498,134
10.471717357635498,40
10.471717357635498,122
10.471717357635498,169
10.471717357635498,142
10.471717357635498,41
10.557295083999634,28
10.557295083999634,16
10.557295083999634,232
10.557295083999634,125
10.557295083999634,83
10.557295083999634,65
10.557295083999634,206
10.557295083999634,73
10.557295083999634,62
10.664931058883667,76
10.664931058883667,230
10.664931058883667,9
10.664931058883667,15
10.666935920715332,185
10.666935920715332,362
10.666935920715332,173
10.666935920715332,399
10.666935920715332,144
10.666935920715332,101
10.761812448501587,194
10.761812448501587,58
10.761812448501587,193
10.761812448501587,100
10.761812448501587,286
10.761812448501587,49
10.763818502426147,103
10.763818502426147,15
10.763818502426147,114
10.857436180114746,79
10.857436180114746,187
10.857436180114746,48
10.857436180114746,133
10.857436180114746,36
10.857436180114746,118
10.857436180114746,0
10.857436180114746,42
10.857436180114746,2
10.956032276153564,52
10.956032276153564,0
10.956032276153564,153
10.956032276153564,5
10.956032276153564,2
10.956032276153564,15
10.956032276153564,50
10.956032276153564,167
10.956032276153564,106
10.956032276153564,10
11.051433563232422,137
11.051433563232422,150
11.051433563232422,1
11.051433563232422,86
11.051433563232422,243
11.051433563232422,272
11.051433563232422,138
11.051433563232422,6
11.051433563232422,12
11.144454002380371,40
11.144454002380371,7
11.144454002380371,128
11.144454002380371,80
11.144454002380371,266
11.144454002380371,81
11.144454002380371,171
11.144454002380371,166
11.144454002380371,191
11.144454002380371,151
11.246263027191162,113
11.246263027191162,20
11.246263027191162,103
11.246263027191162,16
11.246263027191162,27
11.246263027191162,98
11.246263027191162,28
11.246263027191162,77
11.246263027191162,140
11.34291934967041,33
11.34291934967041,143
11.34291934967041,2
11.34291934967041,17
11.344924449920654,30
11.344924449920654,143
11.344924449920654,139
11.344924449920654,49
11.344924449920654,12
11.344924449920654,25
11.444305658340454,1
11.444305658340454,135
11.444305658340454,58
11.444305658340454,0
11.444305658340454,81
11.444305658340454,98
11.444305658340454,39
11.444305658340454,69
11.444305658340454,38
11.444305658340454,86
11.539529085159302,27
11.539529085159302,17
11.539529085159302,75
11.539529085159302,76
11.539529085159302,76
11.539529085159302,92
11.539529085159302,110
11.539529085159302,26
11.539529085159302,329
11.539529085159302,41
11.64946174621582,44
11.650467157363892,74
11.650467157363892,96
11.650467157363892,170
11.650467157363892,90
11.650467157363892,114
11.650467157363892,73
11.650467157363892,274
11.650467157363892,74
11.650467157363892,106
11.745306491851807,107
11.745306491851807,6
11.745306491851807,37
11.745306491851807,92
11.745306491851807,32
11.745306491851807,0
11.745306491851807,22
11.745306491851807,22
11.745306491851807,0
11.745306491851807,56
11.852720499038696,80
11.852720499038696,27
11.852720499038696,0
11.852720499038696,2
11.852720499038696,20
11.852720499038696,181
11.852720499038696,1
11.852720499038696,48
11.852720499038696,44
11.852720499038696,56
11.95334267616272,38
11.95334267616272,28
11.95334267616272,70
11.95334267616272,70
11.95334267616272,126
11.95334267616272,81
11.95334267616272,62
11.95334267616272,54
11.95334267616272,67
11.95334267616272,51
12.04941701889038,62
12.04941701889038,82
12.051422357559204,70
12.051422357559204,81
12.051422357559204,71
12.051422357559204,82
12.051422357559204,1
12.051422357559204,93
12.051422357559204,71
12.14143705368042,86
12.14143705368042,27
12.14143705368042,63
12.14143705368042,10
12.14143705368042,0
12.14143705368042,29
12.14143705368042,51
12.14143705368042,0
12.14143705368042,30
12.14143705368042,4
12.249868869781494,19
12.249868869781494,0
12.249868869781494,13
12.249868869781494,0
12.249868869781494,1
12.249868869781494,1
12.249868869781494,5
12.249868869781494,4
12.249868869781494,21
12.249868869781494,1
12.35332989692688,16
12.35332989692688,48
12.35332989692688,24
12.35332989692688,26
12.35332989692688,32
12.35332989692688,13
12.35332989692688,37
12.35332989692688,35
12.35332989692688,55
12.35332989692688,39
12.443615674972534,44
12.443615674972534,10
12.443615674972534,40
12.443615674972534,28
12.443615674972534,44
12.443615674972534,49
12.443615674972534,52
12.443615674972534,65
12.443615674972534,36
12.443615674972534,69
12.555541515350342,79
12.555541515350342,48
12.555541515350342,38
12.555541515350342,50
12.555541515350342,30
12.555541515350342,43
12.555541515350342,13
12.555541515350342,41
12.555541515350342,20
12.555541515350342,49
12.663064956665039,2
12.663064956665039,43
12.663064956665039,1
12.663064956665039,106
12.663064956665039,9
12.663064956665039,8
12.663064956665039,6
12.663064956665039,0
12.663064956665039,0
12.663064956665039,0
12.764978885650635,0
12.764978885650635,4
12.764978885650635,13
12.764978885650635,22
12.764978885650635,30
12.764978885650635,41
12.764978885650635,0
12.764978885650635,28
12.764978885650635,15
12.764978885650635,30
12.867746829986572,31
12.867746829986572,43
12.867746829986572,33
12.867746829986572,41
12.867746829986572,20
12.867746829986572,4
12.867746829986572,0
12.867746829986572,202
12.867746829986572,11
12.867746829986572,12
12.971539735794067,30
12.971539735794067,7
12.971539735794067,25
12.971539735794067,14
12.971539735794067,31
12.971539735794067,14
12.971539735794067,28
12.971539735794067,0
12.971539735794067,23
12.971539735794067,43
13.07297968864441,24
13.07297968864441,12
13.07297968864441,36
13.07297968864441,21
13.07297968864441,42
13.07297968864441,0
13.07297968864441,17
13.07297968864441,254
13.07297968864441,0
13.07297968864441,16
13.175946950912476,5
13.175946950912476,0
13.175946950912476,37
13.175946950912476,63
13.175946950912476,3
13.175946950912476,0
13.175946950912476,0
13.175946950912476,4
13.175946950912476,41
13.175946950912476,0
13.279254674911499,23
13.279254674911499,19
13.279254674911499,65
13.279254674911499,22
13.279254674911499,7
13.279254674911499,35
13.279254674911499,37
13.279254674911499,2
13.279254674911499,13
13.279254674911499,7
13.279254674911499,1
13.381823539733887,33
13.381823539733887,6
13.381823539733887,6
13.381823539733887,27
13.381823539733887,15
13.381823539733887,29
13.381823539733887,96
13.381823539733887,18
13.381823539733887,14
13.381823539733887,26
13.476980924606323,30
13.476980924606323,7
13.476980924606323,35
13.476980924606323,90
13.476980924606323,16
13.476980924606323,16
13.476980924606323,36
13.476980924606323,0
13.476980924606323,37
13.572120189666748,2
13.572120189666748,45
13.572120189666748,16
13.572120189666748,22
13.572120189666748,0
13.572120189666748,8
13.572120189666748,0
13.572120189666748,0
13.572120189666748,37
13.668214321136475,1
13.668214321136475,5
13.668214321136475,35
13.668214321136475,23
13.668214321136475,5
13.668214321136475,1
13.668214321136475,16
13.668214321136475,0
13.668214321136475,21
13.668214321136475,16
13.763560771942139,28
13.763560771942139,7
13.763560771942139,12
13.763560771942139,4
13.763560771942139,74
13.763560771942139,14
13.763560771942139,16
13.763560771942139,19
13.763560771942139,51
13.85985255241394,2
13.85985255241394,14
13.85985255241394,27
13.85985255241394,11
13.85985255241394,22
13.85985255241394,22
13.85985255241394,26
13.85985255241394,22
13.85985255241394,20
13.957170724868774,7
13.957170724868774,22
13.957170724868774,24
13.957170724868774,21
13.957170724868774,17
13.959176063537598,36
13.959176063537598,4
13.959176063537598,17
13.959176063537598,0
13.959176063537598,22
14.047718524932861,6
14.047718524932861,10
14.047718524932861,0
14.047718524932861,4
14.047718524932861,0
14.047718524932861,8
14.047718524932861,1
14.047718524932861,1
14.047718524932861,4
14.047718524932861,1
14.150654554367065,7
14.150654554367065,5
14.150654554367065,2
14.150654554367065,0
14.150654554367065,8
14.150654554367065,18
14.150654554367065,22
14.150654554367065,0
14.150654554367065,140
14.238793134689331,0
14.238793134689331,8
14.238793134689331,16
14.238793134689331,24
14.238793134689331,23
14.238793134689331,29
14.238793134689331,27
14.238793134689331,42
14.238793134689331,26
14.238793134689331,42
14.334494590759277,16
14.334494590759277,61
14.334494590759277,58
14.334494590759277,67
14.334494590759277,64
14.334494590759277,35
14.334494590759277,8
14.334494590759277,33
14.334494590759277,14
14.428876638412476,38
14.428876638412476,8
14.428876638412476,31
14.428876638412476,5
14.428876638412476,25
14.428876638412476,4
14.428876638412476,12
14.428876638412476,37
14.428876638412476,12
14.428876638412476,21
14.54232907295227,26
14.54232907295227,5
14.54232907295227,0
14.54232907295227,0
14.54232907295227,33
14.54232907295227,24
14.54232907295227,29
14.54232907295227,1
14.54232907295227,20
14.643037796020508,5
14.643037796020508,45
14.643037796020508,26
14.643037796020508,18
14.643037796020508,0
14.643037796020508,48
14.643037796020508,11
14.643037796020508,17
14.643037796020508,13
14.643037796020508,4
14.729477643966675,15
14.729477643966675,2
14.729477643966675,0
14.729477643966675,24
14.729477643966675,0
14.729477643966675,63
14.729477643966675,10
14.729477643966675,0
14.729477643966675,2
14.745202779769897,0
14.840043067932129,13
14.840043067932129,0
14.840043067932129,10
14.840043067932129,0
14.840043067932129,52
14.840043067932129,69
14.840043067932129,50
14.840043067932129,61
14.840043067932129,47
14.840043067932129,3
14.935404062271118,55
14.935404062271118,54
14.935404062271118,28
14.935404062271118,11
14.935404062271118,31
14.935404062271118,8
14.935404062271118,67
14.935404062271118,8
14.935404062271118,30
15.030238151550293,65
15.030238151550293,11
15.030238151550293,0
15.030238151550293,0
15.030238151550293,0
15.030238151550293,0
15.030238151550293,2
15.030238151550293,0
15.030238151550293,1
15.030238151550293,0
15.127315282821655,71
15.14095425605774,18
15.14095425605774,4
15.14095425605774,0
15.14095425605774,0
15.14095425605774,0
15.14095425605774,2
15.14095425605774,0
15.14095425605774,0
15.14095425605774,0
15.235397338867188,2
15.235397338867188,8
15.235397338867188,0
15.235397338867188,4
15.235397338867188,1
15.235397338867188,0
15.235397338867188,7
15.235397338867188,8
15.235397338867188,24
15.235397338867188,15
15.331222295761108,11
15.331222295761108,0
15.331222295761108,20
15.331222295761108,5
15.331222295761108,39
15.331222295761108,9
15.331222295761108,28
15.331222295761108,7
15.331222295761108,64
15.331222295761108,0
15.457901000976562,6
15.457901000976562,7
15.457901000976562,31
15.457901000976562,10
15.457901000976562,13
15.457901000976562,9
15.457901000976562,13
15.457901000976562,7
15.457901000976562,35
15.457901000976562,143
15.457901000976562,45
15.457901000976562,0
15.554951906204224,15
15.554951906204224,1
15.554951906204224,5
15.554951906204224,1
15.554951906204224,7
15.554951906204224,1
15.554951906204224,5
15.554951906204224,0
15.554951906204224,2
15.554951906204224,1
15.665327072143555,15
15.665327072143555,18
15.665327072143555,31
15.665327072143555,115
15.665327072143555,31
15.665327072143555,39
15.665327072143555,17
15.665327072143555,28
15.665327072143555,28
15.665327072143555,41
15.760328769683838,0
15.760328769683838,41
15.760328769683838,8
15.760328769683838,180
15.760328769683838,137
15.760328769683838,61
15.760328769683838,95
15.760328769683838,61
15.760328769683838,0
15.760328769683838,52
15.85569953918457,21
15.85569953918457,15
15.85569953918457,4
15.85569953918457,21
15.85569953918457,169
15.85569953918457,11
15.85569953918457,0
15.85569953918457,18
15.85569953918457,10
15.969772100448608,13
15.969772100448608,0
15.969772100448608,30
15.969772100448608,2
15.969772100448608,20
15.969772100448608,3
15.969772100448608,4
15.969772100448608,4
15.969772100448608,10
15.969772100448608,0
16.06340765953064,0
16.06340765953064,10
16.06340765953064,0
16.06340765953064,5
16.06340765953064,17
16.06340765953064,15
16.06340765953064,19
16.06340765953064,32
16.06340765953064,29
16.06340765953064,33
16.157623052597046,23
16.157623052597046,44
16.157623052597046,9
16.157623052597046,41
16.157623052597046,20
16.157623052597046,33
16.157623052597046,16
16.157623052597046,40
16.157623052597046,19
16.157623052597046,41
16.252503633499146,6
16.252503633499146,32
16.252503633499146,15
16.252503633499146,13
16.252503633499146,3
16.252503633499146,5
16.252503633499146,8
16.252503633499146,13
16.252503633499146,0
16.252503633499146,0
16.366945266723633,8
16.366945266723633,7
16.366945266723633,0
16.366945266723633,3
16.366945266723633,0
16.366945266723633,13
16.366945266723633,17
16.366945266723633,14
16.366945266723633,30
16.470178842544556,24
16.475910425186157,1
16.475910425186157,28
16.475910425186157,52
16.475910425186157,30
16.475910425186157,26
16.475910425186157,0
16.475910425186157,116
16.475910425186157,0
16.475910425186157,61
16.475910425186157,66
16.572072505950928,73
16.572072505950928,21
16.572072505950928,94
16.572072505950928,1
16.572072505950928,69
16.572072505950928,28
16.572072505950928,96
16.572072505950928,59
16.572072505950928,70
16.572072505950928,40
16.677640199661255,37
16.677640199661255,14
16.677640199661255,21
16.677640199661255,36
16.677640199661255,99
16.677640199661255,90
16.677640199661255,39
16.677640199661255,5
16.677640199661255,7
16.677640199661255,5
16.778793811798096,0
16.778793811798096,3
16.778793811798096,0
16.778793811798096,0
16.778793811798096,0
16.778793811798096,21
16.778793811798096,186
16.778793811798096,68
16.778793811798096,12
16.778793811798096,23
16.874938488006592,24
16.874938488006592,32
16.874938488006592,7
16.874938488006592,23
16.874938488006592,0
16.874938488006592,103
16.874938488006592,10
16.874938488006592,26
16.874938488006592,67
16.970330476760864,43
16.970330476760864,45
16.970330476760864,49
16.970330476760864,53
16.970330476760864,93
16.970330476760864,84
16.970330476760864,3
16.970330476760864,33
16.970330476760864,207
16.970330476760864,5
17.065168380737305,62
17.065168380737305,26
17.065168380737305,47
17.065168380737305,6
17.065168380737305,80
17.065168380737305,38
17.065168380737305,73
17.065168380737305,111
17.065168380737305,5
17.160699129104614,3
17.160699129104614,195
17.160699129104614,85
17.160699129104614,51
17.160699129104614,12
17.160699129104614,2
17.160699129104614,46
17.160699129104614,38
17.160699129104614,7
17.255736351013184,12
17.255736351013184,19
17.255736351013184,97
17.255736351013184,103
17.255736351013184,64
17.255736351013184,19
17.255736351013184,26
17.255736351013184,46
17.255736351013184,34
17.351218461990356,41
17.351218461990356,36
17.351218461990356,18
17.351218461990356,54
17.351218461990356,131
17.351218461990356,19
17.351218461990356,73
17.351218461990356,61
17.351218461990356,104
17.351218461990356,41
17.448280096054077,57
17.448280096054077,37
17.44894003868103,175
17.44894003868103,182
17.44894003868103,111
17.44894003868103,59
17.44894003868103,45
17.44894003868103,18
17.44894003868103,52
17.544148921966553,11
17.544148921966553,85
17.544148921966553,0
17.544148921966553,113
17.544148921966553,83
17.544148921966553,403
17.544148921966553,0
17.544148921966553,21
17.544148921966553,44
17.544148921966553,22
17.63716983795166,0
17.63716983795166,13
17.63716983795166,48
17.63716983795166,63
17.63716983795166,39
17.63716983795166,78
17.63716983795166,11
17.63716983795166,14
17.63716983795166,49
17.730570077896118,40
17.730570077896118,4
17.730570077896118,25
17.730570077896118,168
17.730570077896118,160
17.730570077896118,159
17.730570077896118,32
17.730570077896118,53
17.730570077896118,9
17.82762122154236,47
17.82762122154236,60
17.82762122154236,178
17.82762122154236,2
17.82762122154236,165
17.82762122154236,11
17.82762122154236,187
17.82762122154236,66
17.82762122154236,123
17.921331882476807,478
17.921331882476807,85
17.921331882476807,245
17.921331882476807,16
17.921331882476807,333
17.921331882476807,150
17.921331882476807,298
17.921331882476807,185
17.921331882476807,35
17.921331882476807,124
18.016721725463867,373
18.016721725463867,178
18.016721725463867,135
18.016721725463867,385
18.016721725463867,29
18.016721725463867,292
18.016721725463867,56
18.016721725463867,274
18.016721725463867,90
18.114171743392944,5
18.114171743392944,264
18.114171743392944,441
18.114171743392944,424
18.114171743392944,36
18.114171743392944,808
18.114171743392944,227
18.114171743392944,159
18.114171743392944,185
18.2066490650177,53
18.2066490650177,1
18.2066490650177,295
18.2066490650177,313
18.2066490650177,170
18.2066490650177,80
18.2066490650177,468
18.2066490650177,370
18.2066490650177,108
18.2066490650177,155
18.30225658416748,148
18.30225658416748,99
18.30225658416748,36
18.30225658416748,12
18.30225658416748,132
18.30225658416748,95
18.30225658416748,28
18.304282426834106,28
18.304282426834106,92
18.39727210998535,29
18.39727210998535,297
18.39727210998535,191
18.39727210998535,2
18.39727210998535,1023
18.39727210998535,123
18.39727210998535,396
18.39727210998535,67
18.39727210998535,121
18.49230980873108,70
18.49230980873108,48
18.49230980873108,47
18.49230980873108,394
18.49230980873108,3
18.49230980873108,111
18.49230980873108,480
18.49230980873108,5
18.49230980873108,92
18.49230980873108,110
18.587331533432007,172
18.587331533432007,29
18.587331533432007,130
18.587331533432007,343
18.587331533432007,10
18.587331533432007,73
18.587331533432007,108
18.587331533432007,25
18.587331533432007,14
18.68287229537964,314
18.68287229537964,38
18.68287229537964,119
18.68287229537964,184
18.68287229537964,50
18.68287229537964,27
18.68287229537964,3
18.68287229537964,155
18.68287229537964,98
18.68287229537964,232
18.778016090393066,75
18.778016090393066,1023
18.778016090393066,28
18.778016090393066,14
18.778016090393066,371
18.778016090393066,97
18.778016090393066,117
18.778016090393066,27
18.778016090393066,86
18.884567737579346,130
18.884567737579346,335
18.884567737579346,296
18.884567737579346,106
18.884567737579346,10
18.884567737579346,18
18.884567737579346,3
18.884567737579346,1023
18.884567737579346,24
18.884567737579346,114
18.97017192840576,130
18.97017192840576,34
18.97017192840576,499
18.97017192840576,68
18.97017192840576,73
18.97017192840576,131
18.97017192840576,136
18.97017192840576,74
19.06523847579956,153
19.06523847579956,199
19.06523847579956,73
19.06523847579956,4
19.06523847579956,30
19.06523847579956,196
19.06523847579956,59
19.06523847579956,34
19.06523847579956,27
19.162769556045532,134
19.162769556045532,216
19.162769556045532,57
19.162769556045532,57
19.162769556045532,139
19.162769556045532,2
19.162769556045532,418
19.162769556045532,65
19.162769556045532,106
19.162769556045532,118
19.25549006462097,285
19.25549006462097,71
19.25549006462097,118
19.25549006462097,64
19.25549006462097,111
19.25549006462097,360
19.25549006462097,192
19.25549006462097,4
19.25549006462097,223
19.3514084815979,211
19.3514084815979,389
19.3514084815979,182
19.3514084815979,260
19.3514084815979,137
19.3514084815979,223
19.3514084815979,5
19.3514084815979,0
19.3514084815979,47
19.3514084815979,50
19.463284015655518,452
19.463284015655518,450
19.463284015655518,138
19.463284015655518,188
19.46362042427063,62
19.46362042427063,131
19.46362042427063,301
19.46362042427063,611
19.46362042427063,174
19.46362042427063,222
19.559399127960205,0
19.559399127960205,55
19.559399127960205,112
19.559399127960205,24
19.559399127960205,560
19.559399127960205,38
19.559399127960205,196
19.559399127960205,354
19.559399127960205,137
19.559399127960205,3
19.6556499004364,242
19.6556499004364,17
19.6556499004364,21
19.6556499004364,65
19.6556499004364,246
19.6556499004364,88
19.6556499004364,152
19.6556499004364,47
19.6556499004364,78
19.6556499004364,541
19.767980337142944,265
19.767980337142944,783
19.767980337142944,150
19.767980337142944,42
19.767980337142944,103
19.767980337142944,169
19.767980337142944,509
19.767980337142944,162
19.767980337142944,299
19.767980337142944,73
19.87265396118164,176
19.87265396118164,8
19.87265396118164,82
19.87265396118164,477
19.87265396118164,31
19.87265396118164,58
19.87265396118164,411
19.87265396118164,304
19.87265396118164,114
19.87265396118164,161
19.97425937652588,18
19.97425937652588,111
19.97425937652588,85
19.97425937652588,64
19.97425937652588,30
19.97425937652588,308
19.97425937652588,9
19.97425937652588,143
19.97425937652588,34
19.97425937652588,136
20.07040238380432,164
20.07040238380432,120
20.07040238380432,62
20.07040238380432,93
20.07040238380432,115
20.07040238380432,465
20.07040238380432,33
20.07040238380432,194
20.07040238380432,83
20.07040238380432,130
20.180877685546875,333
20.180877685546875,134
20.180877685546875,35
20.180877685546875,151
20.18148183822632,10
20.18148183822632,111
20.18148183822632,15
20.18148183822632,3
20.18148183822632,92
20.18148183822632,104
20.276169776916504,185
20.276169776916504,176
20.276169776916504,310
20.276169776916504,193
20.276169776916504,123
20.276169776916504,136
20.276169776916504,4
20.276169776916504,134
20.276169776916504,419
20.276169776916504,245
20.3821382522583,304
20.3821382522583,11
20.3821382522583,48
20.3821382522583,82
20.3821382522583,58
20.3821382522583,152
20.3821382522583,152
20.3821382522583,24
20.3821382522583,168
20.3821382522583,254
20.483964920043945,262
20.483964920043945,83
20.483964920043945,147
20.483964920043945,21
20.483964920043945,194
20.48596978187561,94
20.48596978187561,163
20.48596978187561,43
20.48596978187561,92
20.48596978187561,37
20.57668113708496,121
20.57668113708496,117
20.57668113708496,19
20.57668113708496,60
20.57668113708496,21
20.57668113708496,22
20.57668113708496,351
20.57668113708496,34
20.57668113708496,212
20.57668113708496,1
20.671637058258057,37
20.671637058258057,124
20.671637058258057,41
20.671637058258057,162
20.682090282440186,15
20.682090282440186,193
20.682090282440186,218
20.682090282440186,153
20.682090282440186,111
20.778084993362427,21
20.778084993362427,138
20.778084993362427,322
20.778084993362427,35
20.778084993362427,32
20.778084993362427,30
20.778084993362427,11
20.778084993362427,15
20.778084993362427,331
20.778084993362427,37
20.87360644340515,95
20.87360644340515,115
20.87360644340515,131
20.87360644340515,18
20.87360644340515,162
20.87360644340515,0
20.87360644340515,2
20.87360644340515,64
20.87360644340515,135
20.975416898727417,15
20.975416898727417,79
20.975416898727417,10
20.975416898727417,1
20.975416898727417,6
20.975416898727417,62
20.975416898727417,24
20.975416898727417,30
20.975416898727417,7
20.975416898727417,44
21.0702965259552,0
21.0702965259552,40
21.0702965259552,65
21.0702965259552,181
21.0702965259552,128
21.0702965259552,868
21.0702965259552,28
21.0702965259552,37
21.0702965259552,79
21.169723749160767,35
21.169723749160767,404
21.169723749160767,70
21.169723749160767,60
21.169723749160767,36
21.169723749160767,13
21.169723749160767,41
21.169723749160767,66
21.169723749160767,11
21.169723749160767,34
21.261255979537964,95
21.261255979537964,193
21.261255979537964,26
21.261255979537964,75
21.261255979537964,31
21.261255979537964,122
21.261255979537964,68
21.261255979537964,98
21.261255979537964,373
21.261255979537964,28
21.356661796569824,115
21.356661796569824,16
21.356661796569824,124
21.356661796569824,2
21.356661796569824,2
21.356661796569824,112
21.356661796569824,0
21.356661796569824,134
21.356661796569824,145
21.45195698738098,51
21.45195698738098,8
21.45195698738098,30
21.45195698738098,42
21.45195698738098,8
21.45195698738098,7
21.45195698738098,15
21.45195698738098,0
21.45195698738098,43
21.54750084877014,3
21.54750084877014,13
21.54750084877014,39
21.54750084877014,197
21.54750084877014,139
21.54750084877014,232
21.54750084877014,82
21.54750084877014,33
21.54750084877014,40
21.642180681228638,178
21.642180681228638,52
21.642180681228638,22
21.642180681228638,135
21.642180681228638,60
21.642180681228638,76
21.64452600479126,28
21.64452600479126,78
21.64452600479126,47
21.73759365081787,44
21.73759365081787,37
21.73759365081787,46
21.73759365081787,0
21.73759365081787,79
21.73759365081787,9
21.73759365081787,74
21.73759365081787,38
21.73759365081787,57
21.836836576461792,29
21.836836576461792,59
21.836836576461792,22
21.836836576461792,75
21.836836576461792,76
21.836836576461792,50
21.836836576461792,5
21.836836576461792,44
21.836836576461792,0
21.836836576461792,2
21.92832636833191,13
21.92832636833191,6
21.92832636833191,94
21.92832636833191,9
21.92832636833191,5
21.92832636833191,28
21.92832636833191,13
21.92832636833191,13
21.92832636833191,42
22.0249764919281,38
22.025496244430542,48
22.025496244430542,53
22.025496244430542,39
22.025496244430542,48
22.025496244430542,32
22.025496244430542,40
22.025496244430542,24
22.025496244430542,45
22.025496244430542,33
22.117815017700195,40
22.117815017700195,24
22.117815017700195,41
22.117815017700195,15
22.117815017700195,4
22.117815017700195,13
22.117815017700195,32
22.117815017700195,61
22.117815017700195,60
22.20013928413391,72
22.20013928413391,0
22.20013928413391,78
22.20013928413391,50
22.20013928413391,56
22.215206623077393,9
22.215206623077393,21
22.215206623077393,5
22.215206623077393,61
22.294761419296265,2
22.294761419296265,52
22.294761419296265,13
22.294761419296265,62
22.294761419296265,40
22.294761419296265,5
22.294761419296265,1
22.294761419296265,70
22.294761419296265,12
22.391448974609375,19
22.391448974609375,13
22.391448974609375,74
22.391448974609375,26
22.391448974609375,136
22.391448974609375,40
22.391448974609375,43
22.391448974609375,37
22.391448974609375,22
22.485607147216797,27
22.485607147216797,24
22.485607147216797,56
22.485607147216797,111
22.485607147216797,109
22.485607147216797,141
22.485607147216797,94
22.485607147216797,11
22.485607147216797,10
22.580665349960327,0
22.580665349960327,21
22.580665349960327,0
22.580665349960327,12
22.580665349960327,18
22.580665349960327,49
22.580665349960327,11
22.580665349960327,37
22.580665349960327,170
22.580665349960327,58
22.677744150161743,68
22.677744150161743,2
22.678355932235718,9
22.678355932235718,39
22.678355932235718,25
22.678355932235718,32
22.678355932235718,0
22.678355932235718,48
22.678355932235718,7
22.77260112762451,39
22.77260112762451,94
22.77260112762451,58
22.77260112762451,0
22.77260112762451,171
22.77260112762451,93
22.77260112762451,74
22.77260112762451,25
22.77260112762451,37
22.77260112762451,0
22.88365077972412,17
22.88365077972412,96
22.88365077972412,8
22.88365077972412,49
22.88365077972412,17
22.88365077972412,29
22.88365077972412,32
22.88365077972412,0
22.88365077972412,8
22.88365077972412,26
22.980021476745605,20
22.980021476745605,39
22.980021476745605,33
22.980021476745605,151
22.980021476745605,0
22.980021476745605,2
22.980021476745605,7
22.980021476745605,0
22.980021476745605,10
23.083841800689697,47
23.083841800689697,0
23.083841800689697,88
23.083841800689697,9
23.083841800689697,1
23.083841800689697,9
23.084407806396484,23
23.084407806396484,33
23.084407806396484,26
23.084407806396484,9
23.185872077941895,35
23.185872077941895,32
23.185872077941895,10
23.185872077941895,29
23.185872077941895,43
23.185872077941895,15
23.185872077941895,28
23.185872077941895,91
23.185872077941895,71
23.185872077941895,28
23.281912088394165,59
23.281912088394165,18
23.281912088394165,55
23.281912088394165,43
23.281912088394165,60
23.281912088394165,50
23.281912088394165,4
23.281912088394165,40
23.281912088394165,0
23.281912088394165,33
23.37750220298767,47
23.37750220298767,61
23.37750220298767,50
23.37750220298767,35
23.37750220298767,21
23.37750220298767,40
23.37750220298767,14
23.37750220298767,15
23.37750220298767,99
23.37750220298767,36
23.472389698028564,59
23.472389698028564,31
23.472389698028564,0
23.472389698028564,7
23.472389698028564,21
23.472389698028564,2
23.472389698028564,20
23.472389698028564,19
23.472389698028564,0
23.472389698028564,56
23.585235834121704,60
23.585235834121704,48
23.585235834121704,58
23.585235834121704,6
23.585235834121704,7
23.585235834121704,71
23.585235834121704,11
23.585235834121704,50
23.585235834121704,24
23.67886447906494,75
23.67886447906494,0
23.67886447906494,2
23.67886447906494,12
23.67886447906494,56
23.67886447906494,73
23.67886447906494,72
23.67886447906494,35
23.67886447906494,36
23.67886447906494,25
23.78581476211548,15
23.78581476211548,7
23.78581476211548,26
23.78581476211548,33
23.78581476211548,39
23.78581476211548,92
23.78581476211548,15
23.78581476211548,0
23.78581476211548,58
23.78581476211548,47
23.886650323867798,8
23.886650323867798,0
23.886650323867798,7
23.886650323867798,6
23.886650323867798,30
23.886650323867798,38
23.886650323867798,0
23.886650323867798,20
23.886650323867798,3
23.886650323867798,2
23.982587099075317,20
23.982587099075317,39
23.982587099075317,53
23.982587099075317,31
23.982587099075317,3
23.982587099075317,61
23.982587099075317,0
23.982587099075317,74
23.982587099075317,49
23.982587099075317,83
24.077946662902832,0
24.077946662902832,26
24.077946662902832,23
24.077946662902832,4
24.077946662902832,39
24.077946662902832,110
24.077946662902832,31
24.077946662902832,43
24.077946662902832,32
24.077946662902832,37
24.184253454208374,43
24.184253454208374,3
24.184253454208374,49
24.184253454208374,18
24.184253454208374,72
24.184253454208374,26
24.184253454208374,25
24.184253454208374,29
24.184253454208374,40
24.284804821014404,11
24.284804821014404,14
24.284804821014404,22
24.284804821014404,13
24.284804821014404,19
24.284804821014404,37
24.284804821014404,38
24.284804821014404,0
24.284804821014404,35
24.284804821014404,17
24.38229012489319,5
24.38229012489319,58
24.38229012489319,6
24.38229012489319,44
24.38229012489319,9
24.38229012489319,36
24.38229012489319,21
24.38229012489319,26
24.38229012489319,5
24.475573301315308,69
24.475573301315308,42
24.475573301315308,11
24.475573301315308,1
24.475573301315308,39
24.475573301315308,26
24.475573301315308,36
24.475573301315308,0
24.475573301315308,11
24.475573301315308,5
24.571874380111694,28
24.571874380111694,3
24.571874380111694,45
24.571874380111694,18
24.571874380111694,27
24.571874380111694,27
24.571874380111694,105
24.571874380111694,19
24.571874380111694,5
24.667386054992676,22
24.667386054992676,19
24.667386054992676,13
24.667386054992676,25
24.667386054992676,87
24.667386054992676,48
24.667386054992676,30
24.667386054992676,1
24.667386054992676,9
24.667386054992676,0
24.764954328536987,4
24.764954328536987,0
24.764954328536987,8
24.764954328536987,11
24.764954328536987,17
24.764954328536987,8
24.76695990562439,1
24.76695990562439,21
24.76695990562439,85
24.858831644058228,3
24.858831644058228,52
24.858831644058228,15
24.858831644058228,137
24.858831644058228,38
24.858831644058228,101
24.858831644058228,16
24.858831644058228,39
24.858831644058228,0
24.9529812335968,12
24.9529812335968,15
24.9529812335968,22
24.9529812335968,0
24.9529812335968,36
24.9529812335968,20
24.9529812335968,24
24.9529812335968,7
24.9529812335968,30
24.9529812335968,0
25.049628734588623,0
25.049628734588623,16
25.049628734588623,0
25.049628734588623,0
25.049628734588623,7
25.049628734588623,0
25.049628734588623,0
25.049628734588623,4
25.049628734588623,2
25.14432644844055,2
25.14432644844055,8
25.14432644844055,0
25.14432644844055,0
25.14504051208496,0
25.14504051208496,1
25.14504051208496,0
25.14504051208496,23
25.14504051208496,0
25.23955488204956,1
25.23955488204956,38
25.23955488204956,53
25.23955488204956,15
25.23955488204956,0
25.23955488204956,12
25.23955488204956,3
25.23955488204956,8
25.23955488204956,6
25.23955488204956,10
25.334710836410522,3
25.334710836410522,49
25.334710836410522,14
25.334710836410522,36
25.334710836410522,8
25.334710836410522,45
25.334710836410522,15
25.334710836410522,40
25.334710836410522,23
25.434710025787354,41
25.434710025787354,11
25.434710025787354,30
25.434710025787354,14
25.434710025787354,65
25.436716318130493,87
25.436716318130493,41
25.436716318130493,35
25.436716318130493,14
25.436716318130493,8
25.52643585205078,9
25.52643585205078,5
25.52643585205078,16
25.52643585205078,8
25.52643585205078,0
25.52643585205078,19
25.52643585205078,10
25.52643585205078,21
25.52643585205078,6
25.628758192062378,0
25.628758192062378,6
25.628758192062378,0
25.628758192062378,5
25.628758192062378,28
25.628758192062378,30
25.628758192062378,48
25.628758192062378,16
25.628758192062378,4
25.628758192062378,1
25.726194620132446,8
25.726194620132446,2
25.726194620132446,33
25.726194620132446,19
25.726194620132446,23
25.726194620132446,47
25.726194620132446,47
25.726194620132446,27
25.726194620132446,53
25.726194620132446,0
25.826775550842285,51
25.826775550842285,11
25.826775550842285,31
25.826775550842285,7
25.826775550842285,34
25.826775550842285,16
25.826775550842285,25
25.826775550842285,8
25.826775550842285,28
25.826775550842285,2
25.9239764213562,36
25.9239764213562,10
25.9239764213562,5
25.9239764213562,4
25.9239764213562,6
25.9239764213562,0
25.9239764213562,1
25.9239764213562,1
25.9239764213562,1
26.028364181518555,23
26.028364181518555,43
26.028364181518555,7
26.028364181518555,0
26.028364181518555,3
26.028364181518555,42
26.028364181518555,0
26.028364181518555,18
26.028364181518555,28
26.028364181518555,27
26.128974437713623,30
26.128974437713623,4
26.128974437713623,8
26.128974437713623,20
26.128974437713623,0
26.128974437713623,25
26.128974437713623,22
26.128974437713623,18
26.128974437713623,34
26.128974437713623,29
26.224873065948486,20
26.224873065948486,4
26.224873065948486,28
26.224873065948486,8
26.224873065948486,86
26.224873065948486,8
26.224873065948486,32
26.224873065948486,22
26.224873065948486,0
26.224873065948486,0
26.3200843334198,25
26.3200843334198,9
26.3200843334198,82
26.325330018997192,25
26.325330018997192,31
26.325330018997192,17
26.325330018997192,18
26.325330018997192,16
26.325330018997192,35
26.42123055458069,15
26.42123055458069,40
26.42123055458069,31
26.42123055458069,14
26.42123055458069,15
26.42123055458069,0
26.42123055458069,16
26.42123055458069,35
26.42123055458069,21
26.42123055458069,0
26.51118540763855,0
26.51118540763855,6
26.51118540763855,14
26.51118540763855,19
26.51118540763855,29
26.51118540763855,23
26.51118540763855,35
26.51118540763855,17
26.51118540763855,53
26.60555410385132,32
26.60555410385132,33
26.60555410385132,39
26.60555410385132,60
26.60555410385132,16
26.60555410385132,65
26.60555410385132,53
26.60555410385132,32
26.60555410385132,0
26.60555410385132,0
26.726898431777954,7
26.726898431777954,15
26.726898431777954,8
26.726898431777954,16
26.726898431777954,0
26.726898431777954,4
26.726898431777954,5
26.726898431777954,122
26.726898431777954,24
26.726898431777954,26
26.821681261062622,20
26.821681261062622,25
26.821681261062622,9
26.821681261062622,54
26.821681261062622,16
26.821681261062622,13
26.821681261062622,25
26.821681261062622,0
26.821681261062622,11
26.821681261062622,18
26.9066801071167,58
26.9066801071167,41
26.9066801071167,32
26.9066801071167,40
26.9066801071167,46
26.9066801071167,42
26.9066801071167,50
26.9066801071167,39
26.9066801071167,56
27.01153254508972,43
27.01153254508972,52
27.01153254508972,48
27.01153254508972,45
27.01153254508972,27
27.01153254508972,37
27.01153254508972,4
27.01153254508972,33
27.013538599014282,16
27.096846342086792,45
27.096846342086792,20
27.096846342086792,40
27.096846342086792,70
27.096846342086792,34
27.096846342086792,0
27.096846342086792,8
27.096846342086792,7
27.096846342086792,12
27.096846342086792,41
27.192285776138306,0
27.192285776138306,2
27.192285776138306,2
27.192285776138306,0
27.192285776138306,10
27.192285776138306,3
27.192285776138306,27
27.192285776138306,22
27.192285776138306,35
27.302507877349854,69
27.302507877349854,36
27.302507877349854,31
27.302507877349854,35
27.302507877349854,25
27.302507877349854,66
27.303513050079346,296
27.303513050079346,495
27.303513050079346,286
27.303513050079346,188
27.3987774848938,92
27.3987774848938,7
27.3987774848938,54
27.3987774848938,137
27.3987774848938,78
27.3987774848938,33
27.3987774848938,55
27.3987774848938,0
27.3987774848938,55
27.48014211654663,55
27.48014211654663,123
27.48014211654663,6
27.48014211654663,49
27.48014211654663,38
27.48014211654663,55
27.48014211654663,0
27.48014211654663,26
27.49411416053772,24
27.589266061782837,29
27.589266061782837,0
27.589266061782837,7
27.589266061782837,0
27.589266061782837,51
27.589266061782837,59
27.589266061782837,0
27.589266061782837,61
27.589266061782837,135
27.589266061782837,28
27.68603515625,26
27.68603515625,24
27.68603515625,35
27.68603515625,37
27.68603515625,30
27.68603515625,25
27.68603515625,28
27.68603515625,95
27.68603515625,16
27.68603515625,111
27.796228170394897,120
27.796228170394897,45
27.796228170394897,7
27.796228170394897,82
27.796228170394897,25
27.796228170394897,151
27.796228170394897,15
27.796228170394897,4
27.796228170394897,78
27.796228170394897,148
27.89171814918518,127
27.89171814918518,130
27.89171814918518,292
27.89171814918518,17
27.89171814918518,17
27.89171814918518,40
27.89171814918518,28
27.89171814918518,76
27.89171814918518,43
27.89171814918518,76
27.98689866065979,86
27.98689866065979,166
27.98689866065979,26
27.98689866065979,702
27.98689866065979,44
27.98689866065979,70
27.98689866065979,87
27.98689866065979,263
27.98689866065979,41
27.98689866065979,79
28.098690271377563,15
28.098690271377563,62
28.098690271377563,521
28.098690271377563,409
28.098690271377563,259
28.098690271377563,40
28.098690271377563,70
28.098690271377563,193
28.098690271377563,154
28.098690271377563,33
28.19395351409912,201
28.19395351409912,35
28.19395351409912,70
28.19395351409912,263
28.19395351409912,209
28.19395351409912,504
28.19395351409912,157
28.19395351409912,138
28.19395351409912,75
28.19395351409912,111
28.305830717086792,168
28.305830717086792,697
28.305830717086792,213
28.305830717086792,221
28.305830717086792,137
28.305830717086792,83
28.305830717086792,1023
28.305830717086792,47
28.305830717086792,359
28.305830717086792,64
28.401344537734985,6
28.401344537734985,58
28.401344537734985,212
28.401344537734985,271
28.401344537734985,522
28.401344537734985,270
28.401344537734985,435
28.401344537734985,595
28.401344537734985,382
28.401344537734985,80
28.5120050907135,80
28.5120050907135,167
28.5120050907135,219
28.5120050907135,20
28.5120050907135,94
28.5120050907135,89
28.5120050907135,263
28.5120050907135,197
28.5120050907135,252
28.5120050907135,205
28.60841417312622,44
28.60841417312622,157
28.60841417312622,108
28.60841417312622,29
28.60841417312622,143
28.60841417312622,46
28.60841417312622,219
28.60841417312622,246
28.60841417312622,2
28.60841417312622,159
28.719634294509888,537
28.719634294509888,30
28.719634294509888,39
28.719634294509888,426
28.719634294509888,0
28.719634294509888,202
28.719634294509888,167
28.719634294509888,230
28.719634294509888,88
28.719634294509888,167
28.816431283950806,131
28.816431283950806,153
28.816431283950806,381
28.816431283950806,10
28.816431283950806,345
28.816431283950806,11
28.816431283950806,308
28.816431283950806,274
28.816431283950806,207
28.816431283950806,41
28.927152156829834,221
28.927152156829834,162
28.927152156829834,28
28.927152156829834,13
28.927152156829834,168
28.927152156829834,84
28.927152156829834,210
28.927152156829834,156
28.927152156829834,346
28.927152156829834,269
28.927152156829834,96
29.022764205932617,75
29.022764205932617,881
29.022764205932617,77
29.022764205932617,30
29.022764205932617,97
29.022764205932617,23
29.022764205932617,61
29.022764205932617,102
29.022764205932617,56
29.128682374954224,438
29.128682374954224,5
29.128682374954224,131
29.128682374954224,220
29.128682374954224,86
29.128682374954224,127
29.128682374954224,49
29.128682374954224,70
29.128682374954224,335
29.128682374954224,129
29.22865390777588,192
29.22865390777588,186
29.22865390777588,61
29.22865390777588,232
29.22865390777588,130
29.22865390777588,152
29.22865390777588,365
29.22865390777588,190
29.22865390777588,58
29.22865390777588,219
29.325820446014404,384
29.325820446014404,115
29.325820446014404,65
29.325820446014404,35
29.325820446014404,63
29.325820446014404,118
29.325820446014404,0
29.325820446014404,254
29.325820446014404,76
29.42104935646057,263
29.42104935646057,282
29.42215085029602,279
29.42215085029602,89
29.42215085029602,69
29.42215085029602,613
29.42215085029602,349
29.42215085029602,159
29.42215085029602,211
29.42215085029602,34
29.517252922058105,141
29.517252922058105,44
29.517252922058105,106
29.517252922058105,9
29.517252922058105,0
29.517252922058105,232
29.517252922058105,193
29.517252922058105,89
29.517252922058105,187
29.61262798309326,0
29.61262798309326,134
29.614633321762085,452
29.614633321762085,16
29.614633321762085,34
29.614633321762085,49
29.614633321762085,64
29.614633321762085,0
29.614633321762085,349
29.614633321762085,174
29.70802927017212,51
29.70802927017212,80
29.70802927017212,175
29.70802927017212,111
29.70802927017212,331
29.70802927017212,141
29.70802927017212,70
29.70802927017212,10
29.70802927017212,174
29.80299973487854,101
29.80299973487854,84
29.80299973487854,90
29.80299973487854,22
29.80299973487854,198
29.80299973487854,245
29.80299973487854,73
29.80299973487854,91
29.80299973487854,73
29.80299973487854,252
29.8974666595459,180
29.8974666595459,215
29.8974666595459,134
29.8974666595459,31
29.8974666595459,34
29.8974666595459,51
29.8974666595459,382
29.8974666595459,131
29.8974666595459,82
29.993130922317505,30
29.993130922317505,305
29.993130922317505,124
29.993130922317505,23
29.993130922317505,92
29.993130922317505,326
29.993130922317505,112
29.993130922317505,226
29.993130922317505,813
29.993130922317505,91
30.10379147529602,331
30.10379147529602,125
30.10379147529602,14
30.10379147529602,129
30.10379147529602,22
30.10379147529602,100
30.10379147529602,237
30.10379147529602,214
30.10379147529602,20
30.10379147529602,21
30.19869828224182,152
30.19869828224182,68
30.19869828224182,47
30.19869828224182,58
30.19869828224182,294
30.19869828224182,200
30.19869828224182,140
30.19869828224182,4
30.19869828224182,136
30.29398822784424,236
30.29398822784424,199
30.29398822784424,19
30.29398822784424,100
30.29398822784424,66
30.29398822784424,9
30.29398822784424,15
30.29398822784424,306
30.29398822784424,21
30.388696908950806,141
30.388696908950806,11
30.388696908950806,435
30.388696908950806,11
30.388696908950806,40
30.388696908950806,7
30.388696908950806,265
30.388696908950806,165
30.388696908950806,89
30.388696908950806,446
30.48494791984558,146
30.48494791984558,2
30.48494791984558,147
30.48494791984558,213
30.48494791984558,129
30.48494791984558,228
30.48494791984558,119
30.48494791984558,348
30.48494791984558,9
30.581064701080322,30
30.581064701080322,306
30.581064701080322,67
30.581064701080322,110
30.581064701080322,201
30.581064701080322,28
30.581064701080322,8
30.581064701080322,116
30.581064701080322,11
30.676989555358887,94
30.676989555358887,88
30.676989555358887,71
30.676989555358887,86
30.676989555358887,20
30.676989555358887,12
30.676989555358887,14
30.676989555358887,275
30.676989555358887,378
30.676989555358887,411
30.771737575531006,86
30.771737575531006,126
30.771737575531006,1
30.771737575531006,79
30.771737575531006,20
30.771737575531006,63
30.771737575531006,114
30.771737575531006,250
30.771737575531006,6
30.866338968276978,143
30.866338968276978,11
30.866338968276978,6
30.866338968276978,45
30.866338968276978,232
30.866338968276978,18
30.866338968276978,129
30.866338968276978,150
30.866338968276978,16
30.866338968276978,7
30.972044229507446,61
30.972044229507446,23
30.972044229507446,74
30.972044229507446,10
30.972044229507446,19
30.972044229507446,11
30.972044229507446,24
30.972044229507446,11
30.972044229507446,27
31.056883335113525,61
31.056883335113525,97
31.056883335113525,59
31.056883335113525,80
31.056883335113525,20
31.056883335113525,83
31.056883335113525,98
31.056883335113525,57
31.056883335113525,54
31.056883335113525,7
31.15305781364441,69
31.15305781364441,84
31.15305781364441,50
31.15305781364441,146
31.15305781364441,39
31.15305781364441,1
31.15305781364441,39
31.15305781364441,41
31.15305781364441,26
31.259648084640503,55
31.259648084640503,54
31.259648084640503,47
31.259648084640503,61
31.259648084640503,47
31.259648084640503,71
31.259648084640503,52
31.259648084640503,64
31.259648084640503,36
31.259648084640503,62
31.34242606163025,45
31.34242606163025,53
31.34242606163025,0
31.34242606163025,46
31.34242606163025,23
31.34242606163025,45
31.34242606163025,14
31.34242606163025,52
31.34242606163025,26
31.437405586242676,54
31.437405586242676,11
31.437405586242676,31
31.437405586242676,16
31.437405586242676,23
31.437405586242676,2
31.437405586242676,25
31.453569889068604,5
31.453569889068604,2
31.453569889068604,0
31.535869359970093,0
31.535869359970093,6
31.535869359970093,8
31.535869359970093,0
31.535869359970093,31
31.535869359970093,14
31.535869359970093,42
31.535869359970093,78
31.535869359970093,26
31.635931491851807,66
31.635931491851807,108
31.635931491851807,39
31.635931491851807,53
31.635931491851807,36
31.635931491851807,33
31.635931491851807,42
31.635931491851807,24
31.635931491851807,41
31.735923767089844,33
31.735923767089844,54
31.735923767089844,43
31.735923767089844,55
31.735923767089844,40
31.735923767089844,57
31.735923767089844,64
31.735923767089844,21
31.735923767089844,8
31.735923767089844,0
31.834280490875244,23
31.834280490875244,43
31.834280490875244,30
31.834280490875244,44
31.834280490875244,39
31.834280490875244,31
31.834280490875244,10
31.834280490875244,27
31.834280490875244,0
31.926625967025757,35
31.926625967025757,23
31.926625967025757,7
31.926625967025757,6
31.926625967025757,9
31.926625967025757,1
31.926625967025757,21
31.926625967025757,0
31.926625967025757,1
32.021974325180054,2
32.021974325180054,21
32.021974325180054,3
32.021974325180054,13
32.021974325180054,3
32.021974325180054,24
32.021974325180054,114
32.021974325180054,74
32.021974325180054,43
32.021974325180054,0
32.12389802932739,2
32.12389802932739,4
32.12389802932739,39
32.12389802932739,89
32.12389802932739,0
32.12389802932739,6
32.12389802932739,0
32.12389802932739,1
32.12389802932739,5
32.203258991241455,5
32.203258991241455,0
32.203258991241455,76
32.203258991241455,14
32.203258991241455,10
32.203258991241455,23
32.203258991241455,21
32.203258991241455,3
32.203258991241455,6
32.29776096343994,14
32.29776096343994,77
32.31354236602783,39
32.31354236602783,11
32.31354236602783,28
32.31354236602783,9
32.31354236602783,0
32.31354236602783,39
32.31354236602783,23
32.31405234336853,8
32.40935230255127,29
32.40935230255127,51
32.40935230255127,60
32.40935230255127,10
32.40935230255127,31
32.40935230255127,3
32.40935230255127,44
32.40935230255127,0
32.40935230255127,15
32.49048399925232,15
32.49048399925232,16
32.49048399925232,13
32.49048399925232,35
32.49048399925232,12
32.49048399925232,9
32.49048399925232,0
32.49048399925232,79
32.49048399925232,111
32.49048399925232,3
32.602062702178955,17
32.602062702178955,104
32.602062702178955,15
32.602062702178955,36
32.602062702178955,2
32.602062702178955,58
32.602062702178955,34
32.602062702178955,14
32.60406827926636,42
32.69615817070007,36
32.69615817070007,0
32.69615817070007,0
32.69615817070007,19
32.69615817070007,7
32.69615817070007,82
32.69615817070007,7
32.69615817070007,47
32.69615817070007,76
32.69615817070007,85
32.79697513580322,81
32.79697513580322,42
32.79697513580322,2
32.79872512817383,43
32.79872512817383,12
32.79872512817383,0
32.79872512817383,11
32.79872512817383,49
32.79872512817383,7
32.88850498199463,38
32.88850498199463,58
32.88850498199463,44
32.88850498199463,76
32.88850498199463,11
32.88850498199463,0
32.88850498199463,1
32.88850498199463,3
32.88850498199463,0
32.88850498199463,2
32.99035406112671,9
32.99035406112671,3
32.99035406112671,6
32.99035406112671,112
32.99035406112671,27
32.99035406112671,61
32.99035406112671,9
32.99035406112671,18
32.99035406112671,1
33.077900409698486,24
33.077900409698486,31
33.077900409698486,0
33.077900409698486,31
33.077900409698486,73
33.077900409698486,56
33.077900409698486,48
33.077900409698486,11
33.077900409698486,34
33.173746824264526,32
33.173746824264526,5
33.173746824264526,9
33.173746824264526,36
33.173746824264526,14
33.173746824264526,69
33.173746824264526,0
33.173746824264526,9
33.173746824264526,11
33.173746824264526,11
33.27017951011658,12
33.27017951011658,137
33.27017951011658,31
33.27017951011658,74
33.27017951011658,107
33.27017951011658,38
33.27017951011658,0
33.27017951011658,0
33.27017951011658,0
33.36512613296509,0
33.36512613296509,9
33.36512613296509,5
33.36512613296509,5
33.36512613296509,0
33.36512613296509,23
33.36512613296509,200
33.36512613296509,74
33.36512613296509,9
33.46019530296326,10
33.46019530296326,0
33.46019530296326,9
33.46019530296326,105
33.46019530296326,8
33.46019530296326,60
33.46019530296326,0
33.46019530296326,0
33.46019530296326,43
33.55678153038025,13
33.55678153038025,73
33.55678153038025,3
33.55678153038025,41
33.55678153038025,5
33.55678153038025,33
33.55678153038025,22
33.55678153038025,83
33.55678153038025,47
33.55678153038025,14
33.65107440948486,23
33.65107440948486,55
33.65107440948486,9
33.65107440948486,18
33.65308094024658,14
33.65308094024658,64
33.65308094024658,78
33.65308094024658,38
33.65308094024658,88
33.74642014503479,33
33.74642014503479,6
33.74642014503479,15
33.74642014503479,4
33.74642014503479,27
33.74642014503479,0
33.74642014503479,18
33.74642014503479,0
33.74642014503479,36
33.8444938659668,37
33.8444938659668,70
33.8444938659668,30
33.8444938659668,0
33.8444938659668,0
33.8444938659668,0
33.8444938659668,32
33.8444938659668,24
33.8444938659668,166
33.8444938659668,5
33.94071626663208,5
33.94071626663208,4
33.94071626663208,20
33.94071626663208,14
33.94071626663208,13
33.94071626663208,21
33.94071626663208,33
33.94071626663208,94
33.94071626663208,18
34.04105305671692,6
34.04105305671692,0
34.04105305671692,14
34.04105305671692,122
34.04105305671692,98
34.04105305671692,44
34.04105305671692,15
34.04105305671692,51
34.04105305671692,19
34.04105305671692,45
34.140116691589355,9
34.140116691589355,43
34.140116691589355,3
34.14112210273743,41
34.14112210273743,12
34.14112210273743,0
34.14112210273743,82
34.14112210273743,0
34.14112210273743,130
34.14112210273743,44
34.23791861534119,16
34.23791861534119,4
34.23791861534119,0
34.23791861534119,3
34.23791861534119,3
34.23791861534119,7
34.23791861534119,3
34.23791861534119,25
34.241124868392944,65
34.241124868392944,6
34.33976626396179,2
34.33976626396179,0
34.33976626396179,0
34.33976626396179,26
34.33976626396179,0
34.33976626396179,1
34.33976626396179,0
34.33976626396179,16
34.33976626396179,13
34.33976626396179,8
34.4304039478302,0
34.4304039478302,1
34.4304039478302,32
34.4304039478302,21
34.4304039478302,118
34.4304039478302,4
34.4304039478302,44
34.4304039478302,8
34.4304039478302,36
34.53966927528381,14
34.53966927528381,27
34.53966927528381,26
34.53966927528381,52
34.53966927528381,6
34.53966927528381,9
34.53966927528381,22
34.53966927528381,51
34.53966927528381,29
34.53966927528381,37
34.64182496070862,7
34.64182496070862,32
34.64182496070862,16
34.64182496070862,38
34.64182496070862,15
34.64182496070862,2
34.64182496070862,0
34.64182496070862,28
34.64182496070862,4
34.64182496070862,21
34.74398398399353,0
34.74398398399353,23
34.74398398399353,35
34.74398398399353,46
34.74398398399353,40
34.74398398399353,4
34.74398398399353,48
34.74398398399353,5
34.74398398399353,2
34.74398398399353,6
34.84838891029358,2
34.84838891029358,0
34.84838891029358,20
34.84838891029358,52
34.84838891029358,12
34.84838891029358,26
34.84838891029358,21
34.84838891029358,33
34.84838891029358,6
34.84838891029358,11
34.95056390762329,29
34.95056390762329,20
34.95056390762329,36
34.95056390762329,18
34.95056390762329,13
34.95256948471069,18
34.95256948471069,45
34.95256948471069,84
34.95256948471069,54
34.95256948471069,18
35.05254578590393,50
35.05254578590393,16
35.05254578590393,0
35.05254578590393,59
35.05254578590393,29
35.05254578590393,43
35.05254578590393,45
35.05254578590393,0
35.05254578590393,19
35.05254578590393,2
35.144166707992554,49
35.144166707992554,24
35.144166707992554,33
35.144166707992554,2
35.144166707992554,6
35.144166707992554,11
35.144166707992554,2
35.144166707992554,0
35.144166707992554,0
35.144166707992554,9
35.248920917510986,3
35.248920917510986,0
35.248920917510986,0
35.248920917510986,1
35.248920917510986,0
35.248920917510986,40
35.248920917510986,5
35.248920917510986,0
35.248920917510986,5
35.248920917510986,10
35.34917116165161,10
35.34917116165161,29
35.34917116165161,13
35.34917116165161,25
35.34917116165161,22
35.34917116165161,24
35.34917116165161,19
35.34917116165161,27
35.34917116165161,20
35.445539474487305,32
35.445539474487305,25
35.445539474487305,36
35.445539474487305,25
35.445539474487305,18
35.445539474487305,23
35.445539474487305,10
35.445539474487305,44
35.445539474487305,50
35.445539474487305,71
35.543386459350586,31
35.543386459350586,11
35.543386459350586,75
35.543386459350586,160
35.543386459350586,43
35.543386459350586,12
35.543386459350586,18
35.543386459350586,0
35.543386459350586,7
35.543386459350586,48
35.63940739631653,122
35.63940739631653,2
35.63940739631653,2
35.63940739631653,3
35.63940739631653,1
35.63940739631653,39
35.63940739631653,4
35.63940739631653,5
35.63940739631653,4
35.73057150840759,10
35.73057150840759,148
35.73057150840759,0
35.73057150840759,14
35.73057150840759,10
35.73057150840759,17
35.73057150840759,77
35.73057150840759,12
35.73057150840759,102
35.825520277023315,16
35.825520277023315,25
35.825520277023315,2
35.825520277023315,25
35.825520277023315,0
35.825520277023315,23
35.825520277023315,0
35.825520277023315,42
35.825520277023315,28
35.825520277023315,10
35.92631196975708,37
35.92631196975708,39
35.92631196975708,21
35.92631196975708,22
35.92631196975708,8
35.92631196975708,8
35.92631196975708,10
35.9283173084259,47
35.9283173084259,1
36.025986433029175,18
36.025986433029175,8
36.025986433029175,65
36.025986433029175,4
36.025986433029175,26
36.025986433029175,20
36.025986433029175,12
36.025986433029175,0
36.025986433029175,23
36.025986433029175,9
36.12229037284851,36
36.12229037284851,0
36.12229037284851,13
36.12229037284851,9
36.12229037284851,27
36.12229037284851,54
36.12229037284851,38
36.12229037284851,104
36.12229037284851,16
36.22075438499451,9
36.22075438499451,35
36.22075438499451,55
36.22075438499451,60
36.22075438499451,66
36.22075438499451,7
36.22075438499451,13
36.22075438499451,0
36.22075438499451,16
36.22075438499451,0
36.320085287094116,32
36.320085287094116,4
36.320085287094116,25
36.320085287094116,41
36.320085287094116,29
36.320085287094116,1
36.320085287094116,21
36.320085287094116,4
36.320085287094116,28
36.320085287094116,0
36.41454720497131,9
36.41454720497131,7
36.41454720497131,141
36.41454720497131,6
36.41454720497131,16
36.41454720497131,6
36.41454720497131,0
36.41454720497131,0
36.41454720497131,0
36.50987124443054,0
36.50987124443054,14
36.50987124443054,11
36.50987124443054,24
36.50987124443054,25
36.50987124443054,51
36.50987124443054,25
36.50987124443054,33
36.50987124443054,24
36.50987124443054,37
36.60989713668823,32
36.60989713668823,33
36.60989713668823,21
36.60989713668823,44
36.60989713668823,35
36.60989713668823,48
36.60989713668823,67
36.60989713668823,37
36.60989713668823,66
36.707890033721924,53
36.707890033721924,66
36.707890033721924,38
36.707890033721924,56
36.707890033721924,40
36.707890033721924,49
36.707890033721924,27
36.707890033721924,47
36.707890033721924,22
36.707890033721924,52
36.80354905128479,12
36.80354905128479,0
36.80354905128479,9
36.80354905128479,33
36.80354905128479,14
36.80354905128479,2
36.80354905128479,9
36.80354905128479,6
36.80354905128479,2
36.90406656265259,0
36.90406656265259,3
36.90406656265259,17
36.90406656265259,1
36.90406656265259,10
36.90406656265259,0
36.90406656265259,24
36.90406656265259,14
36.90406656265259,31
36.90406656265259,24
37.00310921669006,45
37.00310921669006,26
37.00310921669006,55
37.00310921669006,36
37.00310921669006,46
37.00310921669006,29
37.00310921669006,48
37.00310921669006,47
37.00310921669006,53
37.00310921669006,54
37.09503412246704,61
37.09503412246704,71
37.09503412246704,63
37.09503412246704,55
37.09503412246704,47
37.09503412246704,55
37.09503412246704,39
37.09503412246704,62
37.09503412246704,45
37.195014238357544,26
37.195014238357544,26
37.195014238357544,53
37.195014238357544,37
37.195014238357544,50
37.195014238357544,17
37.195014238357544,37
37.195014238357544,31
37.195014238357544,22
37.286545753479004,7
37.286545753479004,3
37.286545753479004,0
37.286545753479004,3
37.286545753479004,0
37.286545753479004,2
37.286545753479004,0
37.286545753479004,13
37.286545753479004,7
37.286545753479004,21
37.38947939872742,20
37.38947939872742,34
37.38947939872742,21
37.38947939872742,35
37.38947939872742,36
37.38947939872742,6
37.38947939872742,158
37.38947939872742,57
37.38947939872742,40
37.49067139625549,46
37.49067139625549,39
37.49067139625549,42
37.49067139625549,40
37.49067139625549,47
37.49067139625549,51
37.49067139625549,52
37.49067139625549,61
37.49067139625549,48
37.49067139625549,69
37.588054895401,45
37.588054895401,52
37.588054895401,42
37.588054895401,32
37.588054895401,11
37.588054895401,51
37.588054895401,23
37.588054895401,49
37.588054895401,28
37.588054895401,55
37.693798780441284,19
37.693798780441284,30
37.693798780441284,19
37.693798780441284,22
37.693798780441284,2
37.693798780441284,13
37.693798780441284,0
37.693798780441284,7
37.693798780441284,0
37.693798780441284,0
37.79365682601929,3
37.795162200927734,17
37.795162200927734,3
37.795162200927734,131
37.795162200927734,7
37.795162200927734,26
37.795162200927734,26
37.795162200927734,23
37.795162200927734,23
37.795162200927734,101
37.893006801605225,31
37.893006801605225,36
37.893006801605225,0
37.893006801605225,58
37.893006801605225,46
37.893006801605225,167
37.893006801605225,53
37.893006801605225,87
37.893006801605225,60
37.893006801605225,27
37.995925188064575,142
37.995925188064575,58
37.995925188064575,53
37.995925188064575,91
37.995925188064575,138
37.995925188064575,55
37.995925188064575,19
37.995925188064575,14
37.995925188064575,161
37.995925188064575,91
38.081300020217896,67
38.081300020217896,113
38.081300020217896,78
38.081300020217896,2
38.081300020217896,85
38.081300020217896,18
38.081300020217896,174
38.081300020217896,33
38.081300020217896,64
38.17636823654175,32
38.17636823654175,110
38.17636823654175,146
38.17636823654175,111
38.17636823654175,171
38.17636823654175,78
38.17636823654175,80
38.17636823654175,59
38.17636823654175,245
38.17636823654175,73
38.282119035720825,7
38.282119035720825,93
38.282119035720825,102
38.282119035720825,32
38.282119035720825,437
38.282119035720825,240
38.282119035720825,224
38.282119035720825,19
38.28412413597107,231
38.38035345077515,470
38.38035345077515,416
38.38035345077515,159
38.38035345077515,248
38.38035345077515,192
38.38035345077515,46
38.38035345077515,414
38.38035345077515,195
38.38035345077515,25
38.481918811798096,413
38.481918811798096,475
38.481918811798096,283
38.481918811798096,96
38.481918811798096,48
38.481918811798096,6
38.481918811798096,400
38.481918811798096,212
38.481918811798096,317
38.481918811798096,318
38.582967042922974,23
38.582967042922974,433
38.582967042922974,76
38.582967042922974,332
38.582967042922974,502
38.582967042922974,81
38.582967042922974,436
38.582967042922974,338
38.582967042922974,156
38.582967042922974,20
38.685439586639404,196
38.685439586639404,185
38.685439586639404,1
38.685439586639404,154
38.685439586639404,115
38.685439586639404,234
38.685439586639404,59
38.685439586639404,95
38.685439586639404,531
38.685439586639404,146
38.781232833862305,17
38.781232833862305,75
38.781232833862305,42
38.781232833862305,124
38.781232833862305,282
38.781232833862305,76
38.781232833862305,156
38.781232833862305,55
38.781232833862305,0
38.781232833862305,254
38.88800048828125,29
38.88800048828125,154
38.88800048828125,292
38.88800048828125,53
38.89000606536865,253
38.89000606536865,141
38.89000606536865,32
38.89000606536865,11
38.89000606536865,85
38.89000606536865,620
38.98667764663696,338
38.98667764663696,296
38.98667764663696,451
38.98667764663696,268
38.98667764663696,18
38.98667764663696,96
38.98667764663696,131
38.98667764663696,132
38.98742604255676,39
39.081324338912964,280
39.081324338912964,535
39.081324338912964,263
39.081324338912964,243
39.081324338912964,172
39.081324338912964,430
39.081324338912964,185
39.081324338912964,424
39.081324338912964,15
39.081324338912964,145
39.17749762535095,302
39.17749762535095,84
39.17749762535095,230
39.17749762535095,357
39.17749762535095,176
39.17749762535095,188
39.17749762535095,193
39.17749762535095,572
39.17749762535095,111
39.2724130153656,506
39.2724130153656,100
39.2724130153656,68
39.2724130153656,60
39.27441930770874,90
39.27441930770874,5
39.27441930770874,713
39.27441930770874,21
39.27441930770874,951
39.368478536605835,101
39.368478536605835,345
39.368478536605835,208
39.368478536605835,109
39.368478536605835,228
39.368478536605835,193
39.368478536605835,200
39.368478536605835,240
39.368478536605835,243
39.368478536605835,169
39.462589502334595,52
39.462589502334595,31
39.462589502334595,159
39.462589502334595,273
39.462589502334595,366
39.462589502334595,124
39.462589502334595,187
39.462589502334595,75
39.462589502334595,66
39.55715584754944,41
39.55715584754944,32
39.55715584754944,199
39.55715584754944,395
39.55715584754944,18
39.55715584754944,333
39.55715584754944,52
39.55715584754944,91
39.55715584754944,92
39.651087045669556,263
39.651087045669556,148
39.651087045669556,65
39.65283417701721,96
39.65283417701721,11
39.65283417701721,129
39.65283417701721,125
39.65283417701721,292
39.65283417701721,153
39.65283417701721,40
39.74533748626709,402
39.74533748626709,191
39.74533748626709,1023
39.74533748626709,31
39.74533748626709,121
39.74533748626709,3
39.74533748626709,426
39.74734354019165,102
39.74734354019165,159
39.83906078338623,144
39.83906078338623,265
39.83906078338623,239
39.83906078338623,118
39.83906078338623,157
39.83906078338623,489
39.83906078338623,187
39.83906078338623,138
39.84106683731079,72
39.93835806846619,78
39.93835806846619,215
39.93835806846619,325
39.93835806846619,111
39.93835806846619,135
39.93835806846619,166
39.93835806846619,162
39.93835806846619,171
39.93835806846619,44
39.93835806846619,138
40.04155874252319,194
40.04155874252319,106
40.04155874252319,449
40.04155874252319,233
40.04155874252319,164
40.04155874252319,71
40.04155874252319,38
40.04155874252319,153
40.04155874252319,10
40.12882351875305,143
40.12882351875305,167
40.12882351875305,42
40.12882351875305,170
40.12882351875305,51
40.12882351875305,302
40.12882351875305,193
40.12882351875305,109
40.12882351875305,238
40.12882351875305,117
40.240182638168335,137
40.240182638168335,636
40.240182638168335,126
40.240182638168335,64
40.240182638168335,243
40.240182638168335,88
40.240182638168335,11
40.240182638168335,69
40.240182638168335,667
40.240182638168335,168
40.33578157424927,178
40.33578157424927,76
40.33578157424927,2
40.33578157424927,109
40.33578157424927,27
40.33578157424927,401
40.33578157424927,190
40.33578157424927,32
40.33578157424927,362
40.33578157424927,195
40.47087550163269,489
40.47087550163269,144
40.47087550163269,125
40.47087550163269,264
40.47087550163269,522
40.47087550163269,138
40.47087550163269,422
40.47087550163269,0
40.47087550163269,37
40.47087550163269,214
40.47087550163269,42
40.47087550163269,292
40.573641777038574,119
40.573641777038574,280
40.573641777038574,320
40.573641777038574,576
40.573641777038574,242
40.575828552246094,280
40.575828552246094,200
40.575828552246094,183
40.575828552246094,238
40.575828552246094,21
40.67912006378174,130
40.67912006378174,15
40.68112874031067,29
40.68112874031067,5
40.68112874031067,65
40.68112874031067,47
40.68112874031067,120
40.68112874031067,103
40.68112874031067,44
40.68112874031067,124
40.68112874031067,74
40.823768854141235,169
40.823768854141235,91
40.823768854141235,46
40.823768854141235,31
40.823768854141235,45
40.823768854141235,2
40.823768854141235,2
40.823768854141235,1
40.823768854141235,173
40.823768854141235,94
40.823768854141235,96
40.823768854141235,3
40.823768854141235,19
40.823768854141235,21
40.92844033241272,7
40.92844033241272,16
40.93044686317444,45
40.93044686317444,7
40.93044686317444,67
40.93044686317444,43
40.93044686317444,46
40.93044686317444,32
40.93044686317444,53
40.93044686317444,0
41.053874015808105,15
41.053874015808105,25
41.053874015808105,13
41.053874015808105,13
41.053874015808105,15
41.053874015808105,53
41.053874015808105,39
41.053874015808105,54
41.053874015808105,70
41.053874015808105,35
41.053874015808105,50
41.053874015808105,60
41.053874015808105,55
41.1858651638031,38
41.1858651638031,58
41.1858651638031,21
41.1858651638031,37
41.1858651638031,35
41.18671464920044,66
41.18671464920044,1
41.18671464920044,112
41.18671464920044,165
41.18671464920044,18
41.18671464920044,4
41.18671464920044,31
41.30200958251953,15
41.30200958251953,0
41.30200958251953,4
41.30200958251953,0
41.30200958251953,2
41.30200958251953,18
41.30200958251953,19
41.30200958251953,97
41.30200958251953,14
41.30200958251953,37
41.30200958251953,24
41.30200958251953,20
41.30200958251953,20
41.42308211326599,46
41.42308211326599,57
41.42308211326599,62
41.428988218307495,12
41.428988218307495,92
41.428988218307495,6
41.428988218307495,14
41.428988218307495,46
41.428988218307495,179
41.428988218307495,102
41.428988218307495,131
41.535468101501465,15
41.535468101501465,36
41.535468101501465,52
41.535468101501465,4
41.535468101501465,51
41.535468101501465,20
41.535468101501465,65
41.535468101501465,16
41.535468101501465,78
41.54071044921875,18
41.54071044921875,37
41.678221464157104,69
41.678221464157104,82
41.678221464157104,17
41.678221464157104,91
41.678221464157104,20
41.678221464157104,332
41.678221464157104,49
41.678221464157104,31
41.678221464157104,9
41.678221464157104,15
41.678221464157104,1
41.678221464157104,3
41.678221464157104,121
41.678221464157104,13
41.87421774864197,2
41.87421774864197,4
41.87421774864197,9
41.87421774864197,0
41.87421774864197,20
41.87421774864197,126
41.87421774864197,0
41.87421774864197,0
41.87421774864197,0
41.87421774864197,3
41.87421774864197,4
41.87421774864197,18
41.87421774864197,8
41.87421774864197,0
41.87421774864197,9
41.87421774864197,18
41.87421774864197,63
41.87421774864197,64
41.87421774864197,5
41.990556955337524,1
41.990556955337524,21
41.990556955337524,6
41.990556955337524,35
41.990556955337524,57
41.990556955337524,2
41.990556955337524,21
41.990556955337524,10
41.990556955337524,1
41.990556955337524,2
41.990556955337524,13
42.112082719802856,27
42.112082719802856,40
42.112082719802856,30
42.112082719802856,84
42.112082719802856,26
42.112082719802856,15
42.112082719802856,37
42.112082719802856,5
42.112082719802856,2
42.112082719802856,20
42.112082719802856,35
42.112082719802856,42
42.22401237487793,36
42.22401237487793,79
42.22401237487793,32
42.22401237487793,7
42.22401237487793,50
42.22401237487793,64
42.22401237487793,0
42.22401237487793,0
42.22401237487793,0
42.22401237487793,0
42.22401237487793,53
42.36604189872742,12
42.36604189872742,0
42.36604189872742,0
42.36604189872742,13
42.36604189872742,19
42.36604189872742,14
42.36604189872742,13
42.36604189872742,5
42.36604189872742,78
42.36604189872742,178
42.36604189872742,29
42.36604189872742,37
42.36604189872742,71
42.36604189872742,18
42.36604189872742,35
42.481839656829834,25
42.481839656829834,51
42.481839656829834,33
42.481839656829834,26
42.481839656829834,23
42.481839656829834,61
42.481839656829834,17
42.481839656829834,67
42.481839656829834,32
42.481839656829834,47
42.62326455116272,11
42.62326455116272,35
42.62326455116272,14
42.62326455116272,14
42.62326455116272,21
42.62326455116272,14
42.62326455116272,0
42.62326455116272,1
42.62326455116272,2
42.62326455116272,113
42.62326455116272,52
42.62326455116272,9
42.62326455116272,0
42.62326455116272,0
42.72916889190674,0
42.72916889190674,6
42.72916889190674,20
42.72916889190674,33
42.72916889190674,16
42.72916889190674,4
42.72916889190674,7
42.72916889190674,24
42.72916889190674,1
42.72916889190674,238
42.72916889190674,15
42.72916889190674,10
42.82543659210205,16
42.82543659210205,34
42.82543659210205,94
42.82543659210205,25
42.82543659210205,39
42.82543659210205,148
42.82543659210205,47
42.8353750705719,9
42.8353750705719,29
42.92702555656433,9
42.92702555656433,31
42.92702555656433,8
42.92702555656433,14
42.92702555656433,34
42.92702555656433,49
42.92702555656433,55
42.92702555656433,4
42.92702555656433,57
43.015658378601074,43
43.015658378601074,19
43.015658378601074,27
43.015658378601074,13
43.015658378601074,61
43.015658378601074,13
43.015658378601074,22
43.015658378601074,0
43.015658378601074,15
43.110960960388184,8
43.110960960388184,20
43.110960960388184,6
43.110960960388184,14
43.110960960388184,0
43.110960960388184,61
43.110960960388184,59
43.110960960388184,107
43.110960960388184,15
43.110960960388184,3
43.20588755607605,5
43.20588755607605,2
43.20588755607605,0
43.20588755607605,12
43.20588755607605,2
43.20588755607605,5
43.20588755607605,57
43.20588755607605,2
43.20588755607605,24
43.300774335861206,28
43.300774335861206,27
43.300774335861206,4
43.300774335861206,44
43.300774335861206,9
43.300774335861206,63
43.300774335861206,23
43.300774335861206,45
43.300774335861206,21
43.300774335861206,113
43.41312551498413,29
43.41312551498413,87
43.41312551498413,37
43.41312551498413,45
43.41312551498413,19
43.41312551498413,41
43.41312551498413,3
43.41312551498413,39
43.41312551498413,7
43.41312551498413,21
43.507802963256836,14
43.507802963256836,43
43.507802963256836,15
43.507802963256836,66
43.507802963256836,15
43.507802963256836,13
43.507802963256836,7
43.507802963256836,4
43.507802963256836,0
43.507802963256836,0
43.6203031539917,9
43.6203031539917,0
43.6203031539917,64
43.6203031539917,18
43.6203031539917,144
43.6203031539917,33
43.6203031539917,0
43.6203031539917,2
43.6203031539917,0
43.6203031539917,0
43.715800285339355,9
43.715800285339355,8
43.715800285339355,12
43.715800285339355,62
43.715800285339355,75
43.715800285339355,9
43.715800285339355,142
43.715800285339355,30
43.715800285339355,9
43.715800285339355,18
43.82593870162964,49
43.82593870162964,25
43.82593870162964,40
43.82593870162964,122
43.82593870162964,33
43.82593870162964,0
43.82593870162964,72
43.82593870162964,17
43.82593870162964,93
43.82593870162964,0
43.922425746917725,48
43.922425746917725,97
43.922425746917725,38
43.922425746917725,9
43.922425746917725,38
43.922425746917725,1
43.922425746917725,111
43.922425746917725,103
43.922425746917725,0
43.922425746917725,1
44.01867198944092,17
44.01867198944092,38
44.01867198944092,18
44.01867198944092,0
44.01867198944092,0
44.01867198944092,54
44.01867198944092,66
44.01867198944092,23
44.01867198944092,0
44.01867198944092,1
44.12912034988403,14
44.12912034988403,53
44.12912034988403,27
44.12912034988403,18
44.12912034988403,11
44.12912034988403,0
44.12912034988403,21
44.12912034988403,22
44.12912034988403,9
44.12912034988403,67
44.22406315803528,95
44.22406315803528,40
44.22406315803528,13
44.22406315803528,89
44.22406315803528,111
44.22406315803528,14
44.22406315803528,10
44.22406315803528,77
44.22406315803528,8
44.22406315803528,2
44.32947254180908,22
44.32947254180908,48
44.32947254180908,0
44.32947254180908,16
44.32947254180908,1
44.32947254180908,61
44.32947254180908,54
44.32947254180908,31
44.32947254180908,9
44.32947254180908,26
44.437586307525635,2
44.437586307525635,8
44.437586307525635,52
44.437586307525635,3
44.437586307525635,4
44.437586307525635,1
44.437586307525635,0
44.437586307525635,35
44.437586307525635,21
44.437586307525635,1
44.54097318649292,22
44.54097318649292,0
44.54097318649292,0
44.54097318649292,10
44.54097318649292,0
44.54097318649292,38
44.54097318649292,29
44.54097318649292,12
44.54097318649292,5
44.54097318649292,0
44.63594055175781,39
44.63594055175781,27
44.63594055175781,28
44.63594055175781,205
44.63594055175781,58
44.63594055175781,3
44.63594055175781,40
44.63594055175781,50
44.63594055175781,91
44.63594055175781,52
44.73090100288391,23
44.73090100288391,19
44.73090100288391,45
44.73090100288391,19
44.73090100288391,0
44.73090100288391,2
44.73090100288391,16
44.73090100288391,11
44.73090100288391,31
44.73090100288391,47
44.84209728240967,26
44.84209728240967,62
44.84209728240967,40
44.84209728240967,18
44.84209728240967,51
44.84209728240967,116
44.84209728240967,15
44.84209728240967,5
44.84209728240967,20
44.84209728240967,11
44.93773126602173,0
44.93773126602173,10
44.93773126602173,62
44.93773126602173,93
44.93773126602173,28
44.93773126602173,4
44.93773126602173,0
44.93773126602173,51
44.93773126602173,0
44.93773126602173,11
45.033771991729736,2
45.033771991729736,3
45.033771991729736,42
45.033771991729736,35
45.033771991729736,0
45.033771991729736,42
45.033771991729736,43
45.033771991729736,5
45.033771991729736,0
45.12831687927246,12
45.12831687927246,36
45.12831687927246,22
45.12831687927246,22
45.12831687927246,13
45.12831687927246,12
45.12831687927246,0
45.12831687927246,0
45.12831687927246,0
45.12831687927246,52
45.24233388900757,47
45.24233388900757,0
45.24233388900757,40
45.24233388900757,6
45.24233388900757,28
45.24233388900757,84
45.24233388900757,35
45.24233388900757,5
45.2439649105072,52
45.2439649105072,5
45.33629298210144,55
45.33629298210144,0
45.33629298210144,26
45.33629298210144,40
45.33629298210144,56
45.33629298210144,16
45.33629298210144,19
45.33629298210144,51
45.33629298210144,44
45.33629298210144,57
45.432427406311035,0
45.432427406311035,26
45.432427406311035,10
45.432427406311035,25
45.432427406311035,30
45.432427406311035,47
45.432427406311035,32
45.432427406311035,4
45.432427406311035,34
45.537659883499146,21
45.537659883499146,3
45.537659883499146,6
45.537659883499146,0
45.537659883499146,49
45.537659883499146,0
45.537659883499146,0
45.537659883499146,0
45.537659883499146,1
45.537659883499146,0
45.63624978065491,15
45.63624978065491,96
45.63624978065491,89
45.63775587081909,36
45.63775587081909,10
45.63775587081909,2
45.63775587081909,29
45.63775587081909,0
45.63775587081909,29
45.63775587081909,7
45.73237633705139,41
45.73237633705139,3
45.73237633705139,50
45.73237633705139,48
45.73237633705139,61
45.73237633705139,0
45.73237633705139,59
45.73237633705139,8
45.73237633705139,45
45.8297963142395,19
45.8297963142395,44
45.8297963142395,23
45.8297963142395,29
45.8297963142395,57
45.8297963142395,24
45.8297963142395,22
45.8297963142395,9
45.8297963142395,17
45.8297963142395,14
45.92612648010254,22
45.92612648010254,62
45.92612648010254,49
45.92612648010254,12
45.92612648010254,33
45.92612648010254,17
45.92612648010254,2
45.92612648010254,2
45.92612648010254,9
46.02334141731262,0
46.02334141731262,5
46.02334141731262,0
46.02334141731262,0
46.02334141731262,12
46.02334141731262,4
46.02334141731262,53
46.02334141731262,6
46.02334141731262,6
46.121739625930786,28
46.121739625930786,0
46.121739625930786,23
46.121739625930786,8
46.121739625930786,40
46.121739625930786,11
46.121739625930786,29
46.121739625930786,16
46.121739625930786,37
46.121739625930786,2
46.21979212760925,29
46.21979212760925,11
46.21979212760925,38
46.21979212760925,19
46.21979212760925,34
46.21979212760925,0
46.21979212760925,1
46.21979212760925,15
46.21979212760925,29
46.21979212760925,12
46.31992697715759,24
46.31992697715759,13
46.31992697715759,102
46.31992697715759,32
46.31992697715759,40
46.31992697715759,0
46.31992697715759,2
46.31992697715759,64
46.31992697715759,117
46.31992697715759,13
46.398438453674316,111
46.398438453674316,2
46.398438453674316,1
46.398438453674316,14
46.398438453674316,1
46.398438453674316,21
46.398438453674316,25
46.398438453674316,0
46.398438453674316,1
46.494521379470825,14
46.494521379470825,15
46.494521379470825,33
46.494521379470825,17
46.494521379470825,24
46.494521379470825,3
46.494521379470825,24
46.494521379470825,13
46.494521379470825,50
46.5980498790741,19
46.5980498790741,17
46.5980498790741,5
46.5980498790741,62
46.5980498790741,0
46.5980498790741,13
46.5980498790741,25
46.5980498790741,44
46.60005521774292,1
46.68345284461975,36
46.68345284461975,0
46.68345284461975,2
46.68345284461975,0
46.68345284461975,37
46.68345284461975,21
46.68345284461975,18
46.68345284461975,13
46.68345284461975,12
46.782854318618774,10
46.782854318618774,0
46.782854318618774,8
46.782854318618774,0
46.782854318618774,58
46.782854318618774,2
46.782854318618774,89
46.782854318618774,0
46.782854318618774,0
46.875144720077515,4
46.875144720077515,0
46.875144720077515,0
46.875144720077515,9
46.875144720077515,0
46.875144720077515,23
46.875144720077515,32
46.875144720077515,23
46.875144720077515,26
46.97052311897278,109
46.97052311897278,2
46.97052311897278,34
46.97052311897278,0
46.97052311897278,47
46.97052311897278,4
46.97052311897278,34
46.97052311897278,14
46.97052311897278,45
47.06550121307373,16
47.06550121307373,28
47.06550121307373,15
47.06550121307373,39
47.06550121307373,20
47.06550121307373,29
47.06550121307373,15
47.06550121307373,17
47.06550121307373,7
47.06550121307373,28
47.16347694396973,7
47.16347694396973,18
47.16347694396973,5
47.16347694396973,5
47.16347694396973,65
47.16347694396973,11
47.16347694396973,12
47.16347694396973,0
47.16347694396973,0
47.259039878845215,4
47.259039878845215,0
47.259039878845215,0
47.259039878845215,101
47.259039878845215,12
47.259039878845215,79
47.260064125061035,6
47.260064125061035,3
47.260064125061035,4
47.260064125061035,113
47.35486078262329,30
47.35486078262329,21
47.35486078262329,58
47.35486078262329,27
47.35486078262329,65
47.35486078262329,47
47.35486078262329,6
47.35486078262329,30
47.35647654533386,13
47.4496374130249,110
47.4496374130249,52
47.4496374130249,57
47.4496374130249,8
47.4496374130249,43
47.4496374130249,15
47.4496374130249,48
47.4496374130249,20
47.4496374130249,43
47.54197072982788,12
47.54197072982788,31
47.54197072982788,6
47.54197072982788,43
47.54197072982788,16
47.54197072982788,0
47.54197072982788,10
47.54197072982788,27
47.54197072982788,0
47.54197072982788,9
47.63673162460327,10
47.63673162460327,4
47.63673162460327,0
47.63673162460327,7
47.63673162460327,2
47.63673162460327,77
47.63673162460327,9
47.63673162460327,8
47.63673162460327,111
47.732990741729736,16
47.732990741729736,0
47.732990741729736,15
47.732990741729736,18
47.732990741729736,27
47.732990741729736,30
47.732990741729736,0
47.732990741729736,18
47.732990741729736,28
47.732990741729736,22
47.827282428741455,4
47.827282428741455,47
47.827282428741455,92
47.827282428741455,248
47.827282428741455,74
47.827282428741455,62
47.827282428741455,21
47.827282428741455,129
47.827282428741455,0
47.93326783180237,98
47.93326783180237,134
47.93326783180237,49
47.93326783180237,132
47.93326783180237,9
47.93326783180237,0
47.93326783180237,136
47.93326783180237,57
47.93326783180237,214
47.93326783180237,106
48.03444004058838,447
48.03444004058838,38
48.03444004058838,0
48.03444004058838,69
48.03444004058838,50
48.03444004058838,70
48.03444004058838,149
48.03444004058838,438
48.03444004058838,129
48.03444004058838,173
48.13314890861511,130
48.13314890861511,126
48.13314890861511,163
48.13314890861511,76
48.13314890861511,108
48.13314890861511,266
48.13314890861511,278
48.13314890861511,31
48.13314890861511,199
48.13314890861511,18
48.22568202018738,182
48.22568202018738,392
48.22568202018738,91
48.22568202018738,16
48.22568202018738,451
48.22568202018738,95
48.22568202018738,7
48.22568202018738,157
48.22568202018738,147
48.33667302131653,80
48.33667302131653,48
48.33667302131653,348
48.33667302131653,377
48.33667302131653,21
48.33667302131653,95
48.33667302131653,66
48.33667302131653,154
48.33667302131653,122
48.33667302131653,106
48.433382749557495,569
48.433382749557495,346
48.433382749557495,279
48.433382749557495,13
48.433382749557495,318
48.433382749557495,238
48.433382749557495,365
48.433382749557495,218
48.433382749557495,373
48.433382749557495,390
48.52808427810669,12
48.52808427810669,26
48.52808427810669,250
48.52808427810669,41
48.52808427810669,245
48.52808427810669,139
48.52808427810669,21
48.52808427810669,561
48.52808427810669,271
48.52808427810669,55
48.639063119888306,233
48.639063119888306,0
48.639063119888306,284
48.639063119888306,35
48.639063119888306,35
48.639063119888306,144
48.639063119888306,510
48.639063119888306,232
48.639063119888306,428
48.7349648475647,186
48.7349648475647,74
48.7349648475647,130
48.7349648475647,32
48.7349648475647,121
48.7349648475647,360
48.7349648475647,792
48.7349648475647,201
48.7349648475647,146
48.7349648475647,51
48.83516216278076,1
48.83516216278076,75
48.83516216278076,135
48.83516216278076,55
48.83516216278076,987
48.83516216278076,80
48.83516216278076,17
48.83516216278076,119
48.83516216278076,881
48.83516216278076,330
48.92592096328735,648
48.92592096328735,135
48.92592096328735,5
48.92592096328735,371
48.92592096328735,50
48.92592096328735,92
48.92592096328735,140
48.92592096328735,155
48.92592096328735,116
49.02104878425598,18
49.02104878425598,61
49.02104878425598,118
49.02104878425598,71
49.02104878425598,176
49.02104878425598,179
49.02104878425598,70
49.02104878425598,208
49.02104878425598,137
49.1227548122406,340
49.1227548122406,108
49.1227548122406,124
49.1227548122406,268
49.1227548122406,126
49.1227548122406,137
49.1227548122406,263
49.1227548122406,51
49.1227548122406,68
49.1227548122406,245
49.21861791610718,162
49.21861791610718,37
49.21861791610718,77
49.21861791610718,764
49.21861791610718,99
49.21861791610718,54
49.21861791610718,35
49.21861791610718,29
49.21861791610718,267
49.307849645614624,40
49.307849645614624,226
49.307849645614624,390
49.307849645614624,140
49.307849645614624,82
49.307849645614624,77
49.307849645614624,133
49.307849645614624,157
49.307849645614624,97
49.307849645614624,150
49.40353035926819,174
49.40353035926819,104
49.40353035926819,30
49.40353035926819,134
49.40353035926819,140
49.40353035926819,161
49.40353035926819,11
49.40353035926819,295
49.40353035926819,90
49.50522446632385,692
49.50522446632385,306
49.50522446632385,361
49.50522446632385,192
49.50522446632385,0
49.50522446632385,130
49.50522446632385,274
49.50522446632385,36
49.50522446632385,11
49.594573974609375,320
49.594573974609375,26
49.594573974609375,39
49.594573974609375,397
49.594573974609375,87
49.594573974609375,151
49.594573974609375,58
49.594573974609375,195
49.594573974609375,223
49.594573974609375,19
49.68914484977722,116
49.68914484977722,3
49.68914484977722,153
49.68914484977722,140
49.68914484977722,253
49.68914484977722,1
49.68914484977722,144
49.68914484977722,17
49.68914484977722,6
49.80468988418579,103
49.80468988418579,169
49.80468988418579,241
49.80468988418579,129
49.80468988418579,253
49.80468988418579,25
49.80468988418579,30
49.80468988418579,66
49.80468988418579,11
49.80468988418579,95
49.905882596969604,86
49.905882596969604,75
49.905882596969604,80
49.905882596969604,88
49.905882596969604,71
49.905882596969604,481
49.905882596969604,73
49.905882596969604,0
49.905882596969604,501
49.905882596969604,64
50.00675940513611,168
50.00675940513611,30
50.00675940513611,105
50.00675940513611,31
50.00675940513611,0
50.00675940513611,171
50.00675940513611,202
50.00675940513611,87
50.00675940513611,123
50.00675940513611,9
50.10312008857727,12
50.10312008857727,103
50.10312008857727,129
50.10312008857727,226
50.10312008857727,4
50.10312008857727,117
50.10312008857727,220
50.10312008857727,118
50.10312008857727,0
50.10312008857727,29
50.216095209121704,129
50.216095209121704,257
50.216095209121704,272
50.216095209121704,82
50.216095209121704,156
50.216095209121704,109
50.216095209121704,146
50.216095209121704,199
50.216095209121704,293
50.216095209121704,146
50.216095209121704,65
50.31521797180176,15
50.31521797180176,81
50.31723141670227,59
50.31723141670227,102
50.31723141670227,118
50.31723141670227,182
50.31723141670227,175
50.31723141670227,124
50.31723141670227,129
50.40550708770752,306
50.40550708770752,145
50.40550708770752,139
50.40550708770752,110
50.40550708770752,187
50.40550708770752,9
50.40550708770752,329
50.40550708770752,218
50.40550708770752,400
50.40550708770752,182
50.501007080078125,42
50.501007080078125,214
50.501007080078125,67
50.501007080078125,413
50.501007080078125,193
50.501007080078125,351
50.501007080078125,43
50.501007080078125,283
50.501007080078125,10
50.501007080078125,332
50.61191701889038,15
50.61191701889038,21
50.61191701889038,248
50.61392331123352,624
50.61392331123352,49
50.61392331123352,234
50.61392331123352,39
50.61392331123352,22
50.61392331123352,482
50.706578493118286,173
50.706578493118286,68
50.706578493118286,46
50.706578493118286,54
50.706578493118286,63
50.706578493118286,201
50.706578493118286,16
50.706578493118286,29
50.706578493118286,179
50.706578493118286,141
50.80185866355896,142
50.80185866355896,107
50.80185866355896,119
50.80185866355896,91
50.80185866355896,107
50.80185866355896,21
50.80185866355896,70
50.80185866355896,46
50.80185866355896,139
50.89712142944336,114
50.89712142944336,236
50.89712142944336,130
50.89712142944336,38
50.89712142944336,228
50.89712142944336,0
50.89712142944336,141
50.89712142944336,10
50.89712142944336,94
50.89712142944336,3
50.99615168571472,77
50.99615168571472,11
50.99615168571472,61
50.99615168571472,62
50.99615168571472,1
50.99615168571472,17
50.99615168571472,117
50.99615168571472,13
50.99615168571472,59
51.089006185531616,13
51.089006185531616,20
51.089006185531616,1
51.089006185531616,7
51.089006185531616,16
51.089006185531616,1
51.089006185531616,1
51.089006185531616,18
51.089006185531616,30
51.18339419364929,32
51.18339419364929,26
51.18339419364929,27
51.18339419364929,61
51.18339419364929,78
51.18339419364929,57
51.18339419364929,61
51.18339419364929,61
51.18339419364929,7
51.28188157081604,62
51.28188157081604,31
51.28188157081604,32
51.28188157081604,41
51.28188157081604,62
51.28188157081604,29
51.28188157081604,60
51.28188157081604,57
51.28188157081604,64
51.28188157081604,39
51.374427318573,93
51.374427318573,88
51.374427318573,0
51.374427318573,26
51.374427318573,57
51.374427318573,26
51.374427318573,60
51.374427318573,31
51.374427318573,23
51.47134613990784,19
51.47134613990784,40
51.47134613990784,3
51.47134613990784,0
51.47134613990784,24
51.47134613990784,98
51.47134613990784,4
51.47134613990784,33
51.47134613990784,12
51.564868211746216,25
51.564868211746216,13
51.564868211746216,232
51.564868211746216,1
51.564868211746216,61
51.564868211746216,14
51.564868211746216,21
51.564868211746216,12
51.564868211746216,27
51.564868211746216,54
51.66035270690918,18
51.66035270690918,25
51.66035270690918,6
51.66035270690918,82
51.66035270690918,0
51.66035270690918,15
51.66035270690918,2
51.66035270690918,44
51.66035270690918,17
51.756476163864136,30
51.756476163864136,0
51.756476163864136,64
51.756476163864136,73
51.756476163864136,1
51.756476163864136,55
51.756476163864136,15
51.756476163864136,6
51.756476163864136,0
51.756476163864136,29
51.85085320472717,71
51.85085320472717,0
51.85085320472717,0
51.85085320472717,0
51.85085320472717,72
51.85085320472717,0
51.85085320472717,74
51.85085320472717,116
51.86682724952698,123
51.86682724952698,24
51.963144063949585,41
51.963144063949585,6
51.963144063949585,41
51.963144063949585,19
51.963144063949585,24
51.963144063949585,19
51.963144063949585,68
51.963144063949585,20
51.963144063949585,123
51.963144063949585,11
52.05782461166382,89
52.05782461166382,13
52.05782461166382,64
52.05782461166382,28
52.05782461166382,41
52.05782461166382,37
52.05782461166382,22
52.05782461166382,0
52.05782461166382,23
52.05782461166382,30
52.169092655181885,22
52.169092655181885,18
52.169092655181885,41
52.169092655181885,72
52.169092655181885,18
52.169092655181885,30
52.17259335517883,6
52.17259335517883,21
52.17259335517883,76
52.17259335517883,0
52.26382637023926,21
52.26382637023926,4
52.26382637023926,0
52.26382637023926,0
52.26382637023926,7
52.27300786972046,8
52.27300786972046,3
52.27300786972046,9
52.27300786972046,82
52.27300786972046,26
52.36981964111328,33
52.36981964111328,31
52.36981964111328,0
52.36981964111328,38
52.36981964111328,36
52.36981964111328,90
52.36981964111328,0
52.36981964111328,47
52.36981964111328,40
52.45563244819641,48
52.45563244819641,8
52.45563244819641,71
52.45563244819641,0
52.45563244819641,55
52.45563244819641,10
52.45563244819641,49
52.45563244819641,54
52.45563244819641,64
52.47137403488159,44
52.566365242004395,32
52.566365242004395,94
52.566365242004395,22
52.566365242004395,23
52.566365242004395,14
52.566365242004395,14
52.566365242004395,10
52.566365242004395,40
52.566365242004395,21
52.566365242004395,3
52.6641263961792,15
52.6641263961792,7
52.6641263961792,158
52.6641263961792,38
52.6641263961792,0
52.6641263961792,32
52.6641263961792,0
52.6641263961792,0
52.6641263961792,21
52.75801920890808,56
52.75801920890808,87
52.75801920890808,27
52.75801920890808,0
52.75801920890808,16
52.75801920890808,34
52.75801920890808,111
52.75801920890808,0
52.75801920890808,12
52.75801920890808,0
52.83632946014404,34
52.83632946014404,0
52.83632946014404,65
52.83632946014404,66
52.83632946014404,30
52.83632946014404,9
52.85249662399292,80
52.85249662399292,4
52.85249662399292,142
52.93171501159668,36
52.93171501159668,50
52.93171501159668,8
52.93171501159668,0
52.93171501159668,7
52.93171501159668,8
52.93171501159668,30
52.93171501159668,19
52.93171501159668,0
53.02698850631714,0
53.02698850631714,4
53.02698850631714,72
53.02698850631714,28
53.02698850631714,6
53.02698850631714,57
53.02698850631714,21
53.02698850631714,0
53.02698850631714,6
53.13257956504822,25
53.13257956504822,6
53.13257956504822,9
53.13257956504822,13
53.13257956504822,70
53.13257956504822,15
53.13257956504822,94
53.13257956504822,67
53.13257956504822,39
53.23529243469238,16
53.23529243469238,45
53.23529243469238,17
53.23529243469238,48
53.23529243469238,11
53.23529243469238,38
53.23529243469238,5
53.23529243469238,44
53.23529243469238,9
53.23529243469238,51
53.32870864868164,12
53.32870864868164,42
53.32870864868164,14
53.32870864868164,10
53.32870864868164,102
53.32870864868164,38
53.32870864868164,8
53.32870864868164,44
53.32870864868164,51
53.32870864868164,36
53.4352068901062,9
53.4352068901062,11
53.4352068901062,0
53.4352068901062,0
53.4352068901062,14
53.4352068901062,0
53.4352068901062,3
53.4352068901062,104
53.4352068901062,12
53.4352068901062,11
53.53524923324585,143
53.53524923324585,0
53.53524923324585,0
53.53524923324585,5
53.53524923324585,8
53.53524923324585,4
53.53524923324585,54
53.53524923324585,1
53.53524923324585,71
53.53524923324585,39
53.631245613098145,36
53.631245613098145,10
53.631245613098145,42
53.631245613098145,10
53.631245613098145,32
53.631245613098145,3
53.631245613098145,70
53.631245613098145,61
53.631245613098145,45
53.631245613098145,17
53.72680377960205,57
53.72680377960205,21
53.72680377960205,47
53.72680377960205,6
53.72680377960205,50
53.72680377960205,46
53.72680377960205,26
53.72680377960205,12
53.72680377960205,37
53.83275628089905,12
53.83275628089905,48
53.83275628089905,8
53.83275628089905,85
53.83275628089905,17
53.83275628089905,53
53.83275628089905,5
53.83275628089905,6
53.83275628089905,17
53.83275628089905,39
53.9292938709259,17
53.9292938709259,0
53.9292938709259,3
53.9292938709259,3
53.9292938709259,14
53.9292938709259,3
53.9292938709259,21
53.9292938709259,3
53.9292938709259,2
54.025760650634766,1
54.025760650634766,3
54.025760650634766,12
54.025760650634766,11
54.025760650634766,16
54.025760650634766,19
54.025760650634766,23
54.025760650634766,21
54.025760650634766,20
54.025760650634766,47
54.1248893737793,25
54.1248893737793,47
54.1248893737793,20
54.1248893737793,42
54.1248893737793,31
54.1248893737793,49
54.1248893737793,18
54.1248893737793,47
54.1248893737793,17
54.22484040260315,50
54.22484040260315,15
54.22484040260315,42
54.22484040260315,16
54.22484040260315,73
54.22484040260315,57
54.22484040260315,32
54.22484040260315,10
54.22484040260315,27
54.22484040260315,12
54.325884103775024,14
54.325884103775024,16
54.325884103775024,4
54.325884103775024,16
54.325884103775024,0
54.325884103775024,0
54.325884103775024,11
54.325884103775024,2
54.325884103775024,1
54.325884103775024,9
54.42169666290283,0
54.42169666290283,6
54.42169666290283,2
54.42169666290283,9
54.42169666290283,9
54.42169666290283,0
54.42169666290283,7
54.42169666290283,7
54.42169666290283,3
54.42169666290283,17
54.506417751312256,11
54.506417751312256,29
54.506417751312256,26
54.506417751312256,31
54.52215313911438,23
54.52215313911438,33
54.52215313911438,20
54.52246904373169,33
54.52246904373169,23
54.61883234977722,55
54.61883234977722,48
54.61883234977722,50
54.61883234977722,20
54.61883234977722,45
54.61883234977722,16
54.61883234977722,45
54.61883234977722,14
54.61883234977722,52
54.61883234977722,59
54.71449613571167,27
54.71449613571167,10
54.71449613571167,41
54.71449613571167,11
54.71449613571167,28
54.71449613571167,60
54.71449613571167,14
54.71449613571167,29
54.71449613571167,15
54.71449613571167,13
54.8112530708313,5
54.8112530708313,1
54.8112530708313,1
54.8112530708313,25
54.8112530708313,4
54.8112530708313,43
54.8112530708313,1
54.8112530708313,3
54.8112530708313,0
54.91916632652283,0
54.91916632652283,3
54.91916632652283,34
54.91916632652283,3
54.91916632652283,6
54.91916632652283,12
54.91916632652283,12
54.91916632652283,11
54.91916632652283,27
54.920912981033325,11
55.02017617225647,19
55.02017617225647,14
55.02017617225647,68
55.02017617225647,16
55.02017617225647,55
55.02017617225647,22
55.02017617225647,54
55.02017617225647,6
55.02017617225647,87
55.02017617225647,32
55.12027335166931,31
55.12027335166931,16
55.12027335166931,48
55.12027335166931,20
55.12027335166931,86
55.12027335166931,52
55.12027335166931,40
55.12027335166931,16
55.12027335166931,40
55.12027335166931,15
55.22124266624451,30
55.22124266624451,7
55.22124266624451,28
55.22124266624451,8
55.22124266624451,2
55.22124266624451,19
55.22124266624451,0
55.22124266624451,34
55.22124266624451,11
55.22124266624451,11
55.32727408409119,0
55.32727408409119,13
55.32727408409119,3
55.32727408409119,0
55.32727408409119,0
55.32727408409119,65
55.32727408409119,87
55.32727408409119,11
55.32727408409119,12
55.32727408409119,1
55.43063688278198,2
55.43063688278198,71
55.43063688278198,51
55.43063688278198,1
55.43063688278198,20
55.43063688278198,35
55.43063688278198,0
55.43063688278198,119
55.43063688278198,10
55.43063688278198,46
55.43063688278198,4
55.54421949386597,48
55.54421949386597,22
55.54421949386597,54
55.54421949386597,54
55.54421949386597,10
55.54421949386597,9
55.54421949386597,50
55.54421949386597,58
55.54421949386597,59
55.54421949386597,7
55.54421949386597,55
55.65523076057434,14
55.65523076057434,39
55.65523076057434,17
55.65523076057434,24
55.65523076057434,32
55.65523076057434,58
55.65523076057434,30
55.65523076057434,155
55.65523076057434,52
55.65523076057434,0
55.65523076057434,9
55.75873136520386,0
55.75873136520386,28
55.75873136520386,5
55.75873136520386,3
55.75873136520386,20
55.75873136520386,8
55.75873136520386,0
55.75873136520386,2
55.75873136520386,0
55.75873136520386,5
55.86542081832886,24
55.86542081832886,0
55.86542081832886,0
55.86542081832886,0
55.86542081832886,0
55.86542081832886,28
55.86542081832886,13
55.86542081832886,88
55.86542081832886,23
55.86542081832886,0
55.96863770484924,2
55.96863770484924,37
55.96863770484924,6
55.96863770484924,48
55.96863770484924,0
55.96863770484924,19
55.96863770484924,18
55.96863770484924,68
55.96863770484924,78
55.96863770484924,27
56.07405948638916,0
56.07405948638916,68
56.07405948638916,15
56.07405948638916,42
56.07405948638916,9
56.07405948638916,37
56.07405948638916,2
56.07405948638916,0
56.07405948638916,25
56.07405948638916,22
56.07405948638916,27
56.17448329925537,38
56.17448329925537,24
56.17448329925537,19
56.17448329925537,16
56.17448329925537,18
56.17448329925537,93
56.17448329925537,5
56.17448329925537,47
56.17448329925537,35
56.17448329925537,6
56.27589225769043,5
56.27589225769043,0
56.27589225769043,8
56.27589225769043,63
56.276405572891235,72
56.276405572891235,5
56.276405572891235,52
56.276405572891235,0
56.276405572891235,1
56.37596154212952,7
56.37596154212952,17
56.37596154212952,6
56.37596154212952,14
56.37596154212952,38
56.37596154212952,28
56.37596154212952,35
56.37596154212952,5
56.37596154212952,12
56.37596154212952,4
56.48462462425232,20
56.48462462425232,22
56.48503851890564,55
56.48503851890564,1
56.48503851890564,53
56.48503851890564,17
56.48503851890564,112
56.48503851890564,0
56.48503851890564,109
56.48503851890564,18
56.48503851890564,48
56.59103488922119,17
56.59103488922119,44
56.59103488922119,76
56.59103488922119,37
56.59103488922119,43
56.59103488922119,35
56.59103488922119,56
56.59103488922119,44
56.59103488922119,0
56.59103488922119,10
56.70101618766785,41
56.70101618766785,13
56.70101618766785,46
56.70101618766785,22
56.70302200317383,4
56.70302200317383,0
56.70302200317383,7
56.70302200317383,2
56.70302200317383,132
56.70302200317383,28
56.70302200317383,18
56.80249047279358,4
56.80249047279358,18
56.80249047279358,32
56.80249047279358,8
56.80249047279358,0
56.80249047279358,11
56.80249047279358,4
56.80249047279358,28
56.80249047279358,8
56.80249047279358,71
56.90226483345032,14
56.90226483345032,19
56.90226483345032,19
56.90226483345032,51
56.90226483345032,13
56.90226483345032,48
56.90226483345032,5
56.90226483345032,52
56.90226483345032,12
56.90226483345032,6
57.014822483062744,29
57.014822483062744,40
57.014822483062744,3
57.014822483062744,23
57.014822483062744,3
57.014822483062744,0
57.014822483062744,23
57.014822483062744,18
