Time,EMG
0.8302173614501953,1
0.8302173614501953,0
0.8302173614501953,1
0.8302173614501953,1
0.8302173614501953,3
0.8302173614501953,3
0.8302173614501953,0
0.8302173614501953,0
0.8302173614501953,3
0.8302173614501953,0
0.8302173614501953,0
0.8302173614501953,2
0.8302173614501953,0
0.8322296142578125,10
0.8322296142578125,2
0.8322296142578125,0
0.8322296142578125,0
0.8322296142578125,0
0.8322296142578125,0
0.8322296142578125,0
0.8322296142578125,1
0.8322296142578125,0
0.8322296142578125,0
0.8322296142578125,4
0.8322296142578125,3
0.8322296142578125,3
0.8322296142578125,0
0.8322296142578125,0
0.8322296142578125,1
0.8322296142578125,0
0.8322296142578125,0
0.8322296142578125,0
0.8322296142578125,11
0.8322296142578125,0
0.8322296142578125,0
0.8322296142578125,5
0.8322296142578125,0
0.8322296142578125,0
0.8322296142578125,0
0.8322296142578125,0
0.8322296142578125,0
0.8322296142578125,0
0.8322296142578125,2
0.8322296142578125,0
0.8322296142578125,0
0.8322296142578125,0
0.8322296142578125,0
0.8322296142578125,0
0.8322296142578125,0
0.8322296142578125,0
0.8322296142578125,0
0.8346052169799805,0
0.8346052169799805,0
0.8346052169799805,0
0.8346052169799805,0
0.8346052169799805,0
0.8346052169799805,0
0.8346052169799805,0
0.8346052169799805,1
0.8346052169799805,0
0.8346052169799805,0
0.8346052169799805,0
0.8346052169799805,2
0.8346052169799805,0
0.8346052169799805,0
0.8346052169799805,0
0.8346052169799805,0
0.8346052169799805,1
0.8346052169799805,0
0.8346052169799805,0
0.8346052169799805,1
0.8346052169799805,0
0.8346052169799805,0
0.8346052169799805,6
0.8346052169799805,0
0.8346052169799805,0
0.8346052169799805,0
0.8346052169799805,0
0.8346052169799805,0
0.8346052169799805,2
0.8346052169799805,2
0.8346052169799805,3
0.8346052169799805,1
0.8346052169799805,0
0.8346052169799805,0
0.8346052169799805,1
0.8346052169799805,9
0.8346052169799805,0
0.8346052169799805,0
0.8346052169799805,0
0.8346052169799805,0
0.8346052169799805,0
0.8346052169799805,0
0.8346052169799805,0
0.8346052169799805,0
0.8346052169799805,1
0.8346052169799805,0
0.8346052169799805,0
0.8346052169799805,0
0.8346052169799805,0
0.8346052169799805,0
0.8346052169799805,0
0.8346052169799805,0
0.8346052169799805,0
0.8346052169799805,0
0.8346052169799805,9
0.8346052169799805,0
0.8346052169799805,2
0.8346052169799805,0
0.8346052169799805,0
0.8346052169799805,0
0.8346052169799805,4
0.8346052169799805,0
0.8346052169799805,4
0.8346052169799805,0
0.8346052169799805,0
0.8346052169799805,0
0.8346052169799805,0
0.8346052169799805,0
0.8346052169799805,5
0.8346052169799805,14
0.8346052169799805,0
0.8346052169799805,2
0.8346052169799805,8
0.8346052169799805,0
0.8346052169799805,0
0.8346052169799805,8
0.8346052169799805,1
0.8394043445587158,18
0.8394043445587158,5
0.8394043445587158,0
1.0824153423309326,0
1.0824153423309326,0
1.0824153423309326,0
1.0832829475402832,0
1.0832829475402832,0
1.0832829475402832,2
1.0832829475402832,0
1.0832829475402832,7
1.0832829475402832,6
1.0832829475402832,1
1.0832829475402832,0
1.0832829475402832,0
1.0832829475402832,0
1.0832829475402832,0
1.0832829475402832,0
1.0832829475402832,10
1.0832829475402832,0
1.0832829475402832,0
1.0832829475402832,1
1.0832829475402832,0
1.0832829475402832,0
1.0832829475402832,0
1.0832829475402832,0
1.0832829475402832,1
1.2368543148040771,0
1.2368543148040771,0
1.2368543148040771,0
1.2368543148040771,7
1.2368543148040771,5
1.2368543148040771,4
1.2368543148040771,0
1.2368543148040771,4
1.2368543148040771,0
1.2368543148040771,2
1.2368543148040771,3
1.2368543148040771,0
1.2368543148040771,0
1.2368543148040771,0
1.2368543148040771,2
1.368532657623291,6
1.368532657623291,3
1.368532657623291,5
1.368532657623291,0
1.368532657623291,0
1.368532657623291,0
1.368532657623291,0
1.368532657623291,0
1.368532657623291,6
1.368532657623291,0
1.368532657623291,0
1.368532657623291,0
1.368532657623291,0
1.5873901844024658,0
1.5873901844024658,0
1.590681552886963,0
1.590681552886963,2
1.590681552886963,0
1.590681552886963,0
1.590681552886963,9
1.590681552886963,7
1.590681552886963,0
1.590681552886963,2
1.590681552886963,0
1.590681552886963,0
1.590681552886963,0
1.590681552886963,3
1.590681552886963,0
1.590681552886963,0
1.590681552886963,0
1.590681552886963,1
1.590681552886963,0
1.590681552886963,0
1.590681552886963,0
1.590681552886963,3
1.7505850791931152,5
1.7505850791931152,0
1.7505850791931152,9
1.7505850791931152,0
1.7505850791931152,1
1.7505850791931152,4
1.7505850791931152,0
1.7505850791931152,3
1.7505850791931152,3
1.7505850791931152,0
1.7505850791931152,0
1.7505850791931152,0
1.7505850791931152,0
1.7505850791931152,1
1.7505850791931152,6
1.8548195362091064,0
1.8548195362091064,1
1.8548195362091064,0
1.8548195362091064,0
1.8548195362091064,0
1.8548195362091064,3
1.8548195362091064,0
1.8548195362091064,0
1.8548195362091064,0
1.8548195362091064,0
1.8548195362091064,0
1.9586551189422607,0
1.9586551189422607,0
1.9586551189422607,0
1.9586551189422607,0
1.9586551189422607,6
1.9586551189422607,0
1.9586551189422607,0
1.9586551189422607,7
1.9586551189422607,0
1.9586551189422607,2
2.0464260578155518,0
2.0464260578155518,1
2.0464260578155518,0
2.0464260578155518,5
2.0464260578155518,0
2.0464260578155518,3
2.0464260578155518,10
2.0464260578155518,0
2.0464260578155518,0
2.0464260578155518,1
2.1582369804382324,0
2.1582369804382324,0
2.1582369804382324,0
2.1582369804382324,0
2.1582369804382324,0
2.1582369804382324,0
2.1582369804382324,1
2.1582369804382324,0
2.1582369804382324,0
2.1582369804382324,4
2.2540345191955566,1
2.2540345191955566,0
2.2540345191955566,0
2.2540345191955566,0
2.2540345191955566,0
2.2540345191955566,0
2.2540345191955566,0
2.2540345191955566,0
2.2540345191955566,0
2.2540345191955566,5
2.3594775199890137,0
2.3594775199890137,1
2.3594775199890137,6
2.3594775199890137,1
2.3594775199890137,0
2.3594775199890137,6
2.3594775199890137,0
2.3594775199890137,0
2.3594775199890137,3
2.458656072616577,0
2.458656072616577,0
2.458656072616577,1
2.458656072616577,0
2.458656072616577,0
2.458656072616577,0
2.458656072616577,0
2.458656072616577,2
2.458656072616577,3
2.458656072616577,8
2.55639386177063,0
2.55639386177063,5
2.55639386177063,5
2.55639386177063,0
2.55639386177063,0
2.55639386177063,0
2.55639386177063,0
2.55639386177063,5
2.55639386177063,0
2.55639386177063,0
2.6516380310058594,0
2.6516380310058594,1
2.6516380310058594,0
2.6516380310058594,0
2.6516380310058594,0
2.6516380310058594,0
2.6516380310058594,4
2.6516380310058594,3
2.6516380310058594,0
2.7542572021484375,0
2.7542572021484375,0
2.7542572021484375,0
2.7542572021484375,0
2.7542572021484375,8
2.7542572021484375,5
2.7542572021484375,6
2.7542572021484375,0
2.7542572021484375,2
2.7542572021484375,0
2.8423268795013428,2
2.8423268795013428,1
2.8423268795013428,0
2.8423268795013428,7
2.8423268795013428,1
2.8423268795013428,4
2.8423268795013428,2
2.8423268795013428,0
2.8423268795013428,10
2.8423268795013428,0
2.951367139816284,0
2.951367139816284,0
2.951367139816284,0
2.951367139816284,5
2.951367139816284,9
2.951367139816284,0
2.951367139816284,0
2.951367139816284,0
2.951367139816284,1
2.951367139816284,0
3.051964521408081,5
3.051964521408081,0
3.051964521408081,0
3.051964521408081,0
3.051964521408081,3
3.051964521408081,0
3.051964521408081,0
3.051964521408081,1
3.051964521408081,0
3.1435086727142334,0
3.1435086727142334,8
3.1435086727142334,5
3.1435086727142334,0
3.1435086727142334,0
3.1435086727142334,0
3.1435086727142334,0
3.1435086727142334,4
3.1435086727142334,0
3.1435086727142334,0
3.249464750289917,0
3.249464750289917,0
3.249464750289917,0
3.249464750289917,6
3.249464750289917,4
3.249464750289917,9
3.249464750289917,0
3.249464750289917,0
3.249464750289917,2
3.249464750289917,0
3.347440481185913,0
3.347440481185913,0
3.347440481185913,1
3.347440481185913,0
3.347440481185913,10
3.347440481185913,0
3.347440481185913,5
3.3494465351104736,0
3.3494465351104736,0
3.3494465351104736,0
3.4468493461608887,0
3.4468493461608887,0
3.4468493461608887,0
3.4468493461608887,0
3.4468493461608887,0
3.4468493461608887,1
3.4468493461608887,1
3.4468493461608887,0
3.4468493461608887,8
3.542569875717163,0
3.542569875717163,6
3.542569875717163,4
3.542569875717163,2
3.542569875717163,2
3.542569875717163,1
3.542569875717163,0
3.542569875717163,0
3.542569875717163,0
3.542569875717163,0
3.637939453125,1
3.637939453125,0
3.637939453125,0
3.637939453125,2
3.637939453125,0
3.637939453125,0
3.637939453125,0
3.637939453125,0
3.637939453125,0
3.637939453125,0
3.7342352867126465,0
3.7342352867126465,0
3.7342352867126465,3
3.7342352867126465,7
3.7342352867126465,2
3.7342352867126465,0
3.7342352867126465,0
3.7342352867126465,0
3.7342352867126465,2
3.830897808074951,0
3.841132164001465,0
3.841132164001465,0
3.841132164001465,1
3.841132164001465,0
3.841132164001465,0
3.841132164001465,10
3.841132164001465,2
3.841132164001465,0
3.841132164001465,0
3.936131238937378,0
3.936131238937378,0
3.936131238937378,1
3.936131238937378,0
3.936131238937378,2
3.936131238937378,0
3.936131238937378,0
3.936131238937378,9
3.936131238937378,0
3.936131238937378,0
4.031464099884033,0
4.031464099884033,0
4.031464099884033,0
4.031464099884033,3
4.031464099884033,0
4.031464099884033,0
4.031464099884033,0
4.031464099884033,6
4.031464099884033,0
4.1283485889434814,0
4.1283485889434814,1
4.1283485889434814,0
4.1283485889434814,10
4.1283485889434814,0
4.1283485889434814,0
4.1283485889434814,0
4.1283485889434814,0
4.1283485889434814,0
4.211177110671997,0
4.211177110671997,6
4.211177110671997,0
4.211177110671997,0
4.211177110671997,3
4.211177110671997,0
4.211177110671997,1
4.211177110671997,0
4.211177110671997,3
4.211177110671997,0
4.31781268119812,2
4.31781268119812,21
4.31781268119812,5
4.31781268119812,0
4.31781268119812,1
4.31781268119812,0
4.31781268119812,0
4.31781268119812,1
4.31781268119812,0
4.410775423049927,0
4.410775423049927,0
4.410775423049927,5
4.410775423049927,0
4.410775423049927,0
4.410775423049927,1
4.410775423049927,0
4.410775423049927,0
4.410775423049927,2
4.495934963226318,0
4.495934963226318,0
4.495934963226318,3
4.495934963226318,0
4.495934963226318,0
4.495934963226318,5
4.495934963226318,0
4.495934963226318,0
4.495934963226318,0
4.590566396713257,0
4.590566396713257,0
4.590566396713257,0
4.590566396713257,1
4.590566396713257,2
4.590566396713257,0
4.590566396713257,2
4.590566396713257,5
4.590566396713257,1
4.694032430648804,3
4.694032430648804,0
4.694032430648804,4
4.694032430648804,1
4.694032430648804,7
4.694032430648804,0
4.694032430648804,0
4.694032430648804,0
4.694032430648804,0
4.694032430648804,0
4.785065412521362,4
4.785065412521362,0
4.785065412521362,10
4.785065412521362,0
4.785065412521362,0
4.785065412521362,3
4.785065412521362,0
4.785065412521362,2
4.785065412521362,0
4.878777980804443,2
4.878777980804443,0
4.878777980804443,4
4.878777980804443,1
4.878777980804443,2
4.878777980804443,0
4.878777980804443,2
4.878777980804443,4
4.878777980804443,0
4.972202301025391,0
4.972202301025391,0
4.972202301025391,6
4.972202301025391,0
4.974210500717163,0
4.974210500717163,0
4.974210500717163,3
4.974210500717163,0
4.974210500717163,0
5.0678629875183105,0
5.0678629875183105,0
5.0678629875183105,0
5.0678629875183105,1
5.0678629875183105,2
5.0678629875183105,0
5.0678629875183105,3
5.0678629875183105,1
5.0678629875183105,0
5.0678629875183105,0
5.162257432937622,0
5.162257432937622,0
5.162257432937622,2
5.162257432937622,5
5.162257432937622,0
5.162257432937622,0
5.162257432937622,1
5.162257432937622,0
5.162257432937622,1
5.256645441055298,0
5.256645441055298,0
5.256645441055298,5
5.256645441055298,18
5.256645441055298,0
5.256645441055298,5
5.256645441055298,0
5.256645441055298,0
5.256645441055298,0
5.35138201713562,0
5.35138201713562,0
5.35138201713562,0
5.35138201713562,2
5.35138201713562,6
5.35138201713562,1
5.35138201713562,0
5.35138201713562,0
5.35138201713562,5
5.35138201713562,0
5.444913387298584,5
5.444913387298584,0
5.444913387298584,0
5.444913387298584,2
5.444913387298584,0
5.444913387298584,4
5.444913387298584,0
5.444913387298584,4
5.444913387298584,0
5.539307355880737,0
5.539307355880737,0
5.539307355880737,1
5.539307355880737,0
5.539307355880737,7
5.539307355880737,0
5.539307355880737,0
5.539307355880737,2
5.539307355880737,0
5.6349570751190186,0
5.6349570751190186,0
5.6349570751190186,0
5.6349570751190186,0
5.6349570751190186,0
5.6349570751190186,0
5.6349570751190186,6
5.6349570751190186,0
5.6349570751190186,6
5.6349570751190186,0
5.720422744750977,2
5.720422744750977,2
5.73091983795166,7
5.73091983795166,8
5.73091983795166,1
5.73091983795166,0
5.73091983795166,0
5.73091983795166,0
5.73091983795166,0
5.824114561080933,0
5.824114561080933,0
5.824114561080933,1
5.824114561080933,0
5.824114561080933,0
5.824114561080933,0
5.824114561080933,5
5.824114561080933,0
5.824114561080933,0
5.9103844165802,6
5.9103844165802,3
5.9103844165802,0
5.9103844165802,0
5.9103844165802,0
5.9103844165802,0
5.9103844165802,1
5.9103844165802,0
5.9103844165802,2
6.013244152069092,4
6.013244152069092,0
6.013244152069092,1
6.013244152069092,0
6.013244152069092,1
6.013244152069092,0
6.013244152069092,0
6.013244152069092,0
6.013244152069092,0
6.013244152069092,0
6.099714756011963,7
6.099714756011963,0
6.099714756011963,0
6.099714756011963,0
6.099714756011963,0
6.099714756011963,0
6.099714756011963,0
6.099714756011963,1
6.099714756011963,0
6.202805757522583,0
6.202805757522583,0
6.202805757522583,0
6.202805757522583,0
6.202805757522583,0
6.202805757522583,0
6.202805757522583,0
6.202805757522583,1
6.202805757522583,0
6.296457529067993,2
6.296457529067993,0
6.296457529067993,4
6.296457529067993,0
6.296457529067993,0
6.296457529067993,0
6.296457529067993,0
6.296457529067993,0
6.296457529067993,0
6.3901307582855225,0
6.3901307582855225,1
6.3901307582855225,0
6.3901307582855225,0
6.3901307582855225,0
6.3901307582855225,0
6.3901307582855225,0
6.3901307582855225,0
6.3901307582855225,0
6.3901307582855225,1
6.483558654785156,0
6.483558654785156,0
6.483558654785156,0
6.483558654785156,0
6.485564231872559,0
6.485564231872559,0
6.485564231872559,0
6.485564231872559,6
6.485564231872559,0
6.577527284622192,0
6.577527284622192,0
6.577527284622192,0
6.577527284622192,0
6.577527284622192,0
6.577527284622192,0
6.577527284622192,0
6.577527284622192,18
6.577527284622192,0
6.675770998001099,0
6.675770998001099,1
6.675770998001099,0
6.675770998001099,1
6.675770998001099,3
6.675770998001099,0
6.675770998001099,3
6.675770998001099,4
6.675770998001099,9
6.675770998001099,3
6.76604700088501,0
6.76604700088501,1
6.76604700088501,0
6.76604700088501,0
6.76604700088501,0
6.76604700088501,0
6.76604700088501,1
6.76604700088501,7
6.76604700088501,3
6.861386060714722,0
6.861386060714722,2
6.861386060714722,0
6.861386060714722,4
6.861386060714722,3
6.861386060714722,0
6.861386060714722,15
6.861386060714722,0
6.861386060714722,3
6.958693504333496,9
6.958693504333496,0
6.958693504333496,0
6.958693504333496,0
6.958693504333496,0
6.958693504333496,6
6.958693504333496,0
6.958693504333496,7
6.958693504333496,0
6.958693504333496,4
7.05164098739624,0
7.05164098739624,4
7.05164098739624,0
7.05164098739624,5
7.05164098739624,8
7.05164098739624,0
7.05164098739624,0
7.05164098739624,21
7.05164098739624,26
7.1468892097473145,1
7.1468892097473145,3
7.1468892097473145,1
7.1468892097473145,2
7.1468892097473145,4
7.1468892097473145,0
7.1468892097473145,22
7.1468892097473145,28
7.1468892097473145,4
7.240882635116577,0
7.240882635116577,0
7.240882635116577,0
7.240882635116577,0
7.240882635116577,9
7.2426300048828125,1
7.2426300048828125,8
7.2426300048828125,0
7.2426300048828125,0
7.335150241851807,49
7.335150241851807,72
7.335150241851807,225
7.335150241851807,1
7.335150241851807,73
7.335150241851807,152
7.335150241851807,109
7.335150241851807,106
7.335150241851807,0
7.429591178894043,220
7.429591178894043,91
7.429591178894043,246
7.429591178894043,141
7.429591178894043,112
7.429591178894043,268
7.431597709655762,162
7.431597709655762,168
7.431597709655762,231
7.431597709655762,68
7.531338691711426,24
7.531338691711426,26
7.531338691711426,99
7.531338691711426,164
7.531338691711426,87
7.531338691711426,78
7.531338691711426,173
7.531338691711426,45
7.531338691711426,50
7.531338691711426,213
7.63015604019165,76
7.63015604019165,11
7.63015604019165,77
7.63015604019165,88
7.63015604019165,36
7.63015604019165,252
7.63015604019165,138
7.6317009925842285,169
7.6317009925842285,227
7.719362735748291,197
7.719362735748291,50
7.719362735748291,145
7.719362735748291,216
7.719362735748291,66
7.719362735748291,138
7.719362735748291,20
7.719362735748291,106
7.719362735748291,62
7.719362735748291,40
7.824202060699463,253
7.824202060699463,117
7.824202060699463,167
7.824202060699463,104
7.824202060699463,289
7.824202060699463,374
7.824202060699463,217
7.824202060699463,6
7.824202060699463,146
7.921148300170898,18
7.921148300170898,169
7.921148300170898,82
7.921148300170898,21
7.921148300170898,134
7.921148300170898,57
7.921148300170898,66
7.921148300170898,69
7.921148300170898,120
7.921148300170898,76
8.021484851837158,14
8.021484851837158,278
8.021484851837158,10
8.021484851837158,368
8.021484851837158,95
8.021484851837158,9
8.021484851837158,81
8.021484851837158,228
8.026931047439575,284
8.026931047439575,65
8.12608528137207,163
8.12608528137207,141
8.12608528137207,76
8.12608528137207,0
8.12608528137207,30
8.128090620040894,31
8.128090620040894,229
8.128090620040894,145
8.128090620040894,149
8.128090620040894,72
8.21984601020813,190
8.21984601020813,48
8.21984601020813,32
8.21984601020813,54
8.227490663528442,66
8.227490663528442,141
8.227490663528442,33
8.227954149246216,153
8.227954149246216,132
8.32585072517395,118
8.32585072517395,141
8.32585072517395,18
8.32585072517395,130
8.32585072517395,103
8.32585072517395,61
8.32585072517395,139
8.32585072517395,0
8.32585072517395,33
8.32585072517395,51
8.418834447860718,58
8.418834447860718,105
8.418834447860718,3
8.418834447860718,35
8.418834447860718,40
8.418834447860718,118
8.418834447860718,145
8.418834447860718,32
8.418834447860718,104
8.418834447860718,19
8.529115915298462,331
8.529115915298462,58
8.529115915298462,66
8.529115915298462,111
8.529115915298462,196
8.529115915298462,108
8.529115915298462,124
8.529115915298462,108
8.529115915298462,280
8.529115915298462,21
8.63489055633545,14
8.63489055633545,32
8.63489055633545,47
8.63489055633545,173
8.63489055633545,98
8.63489055633545,159
8.63489055633545,91
8.63489055633545,19
8.63489055633545,25
8.63489055633545,111
8.736165046691895,23
8.736165046691895,13
8.736165046691895,113
8.736165046691895,131
8.736165046691895,101
8.736165046691895,46
8.736165046691895,428
8.738268613815308,52
8.738268613815308,3
8.738268613815308,69
8.832278966903687,147
8.832278966903687,7
8.832278966903687,27
8.832278966903687,24
8.832278966903687,146
8.832278966903687,19
8.832278966903687,27
8.832278966903687,119
8.832278966903687,136
8.832278966903687,284
8.832278966903687,4
8.938822746276855,55
8.938822746276855,5
8.938822746276855,15
8.938822746276855,592
8.938822746276855,101
8.938822746276855,213
8.938822746276855,52
8.938822746276855,186
8.938822746276855,40
9.039247512817383,133
9.039247512817383,146
9.039247512817383,26
9.039247512817383,159
9.039247512817383,102
9.039247512817383,25
9.039247512817383,7
9.039247512817383,166
9.039247512817383,277
9.039247512817383,34
9.144136428833008,18
9.144136428833008,102
9.144136428833008,33
9.144136428833008,0
9.146141767501831,111
9.146141767501831,39
9.146141767501831,455
9.146141767501831,67
9.146141767501831,260
9.146141767501831,28
9.240627527236938,18
9.240627527236938,38
9.240627527236938,0
9.240627527236938,274
9.240627527236938,233
9.240627527236938,52
9.240627527236938,125
9.240627527236938,28
9.240627527236938,124
9.240627527236938,263
9.341362953186035,44
9.341362953186035,111
9.341362953186035,18
9.341362953186035,70
9.341362953186035,81
9.341362953186035,325
9.341362953186035,152
9.341362953186035,302
9.341362953186035,520
9.341362953186035,114
9.437109231948853,0
9.437109231948853,14
9.437109231948853,44
9.437109231948853,43
9.437109231948853,155
9.437109231948853,59
9.437109231948853,11
9.437109231948853,190
9.437109231948853,145
9.533618211746216,118
9.533618211746216,0
9.533618211746216,249
9.533618211746216,1
9.533618211746216,269
9.533618211746216,99
9.533618211746216,217
9.533618211746216,37
9.533618211746216,57
9.533618211746216,166
9.644390344619751,38
9.644390344619751,18
9.644390344619751,138
9.644390344619751,54
9.644390344619751,211
9.644390344619751,20
9.644390344619751,113
9.644390344619751,61
9.644390344619751,8
9.644390344619751,125
9.74324345588684,175
9.74324345588684,6
9.74324345588684,10
9.74324345588684,18
9.74324345588684,145
9.74324345588684,66
9.74324345588684,10
9.74324345588684,377
9.74324345588684,5
9.74324345588684,74
9.844686508178711,130
9.844686508178711,39
9.844686508178711,0
9.844686508178711,114
9.844686508178711,129
9.84623908996582,48
9.84623908996582,4
9.84623908996582,49
9.84623908996582,6
9.84623908996582,66
9.944840431213379,23
9.944840431213379,7
9.944840431213379,50
9.944840431213379,256
9.944840431213379,79
9.944840431213379,97
9.944840431213379,41
9.944840431213379,217
9.944840431213379,5
9.944840431213379,213
10.044010162353516,275
10.044010162353516,239
10.044010162353516,6
10.044010162353516,346
10.044010162353516,95
10.044010162353516,101
10.044010162353516,166
10.044010162353516,0
10.044010162353516,166
10.13587474822998,361
10.13587474822998,27
10.13587474822998,81
10.13587474822998,215
10.13587474822998,153
10.13587474822998,25
10.13587474822998,31
10.13587474822998,6
10.13587474822998,0
10.13587474822998,3
10.231021642684937,3
10.231021642684937,9
10.231021642684937,3
10.231021642684937,5
10.231021642684937,75
10.231021642684937,78
10.231021642684937,279
10.231021642684937,41
10.231021642684937,12
10.326514959335327,0
10.326514959335327,0
10.326514959335327,0
10.326514959335327,0
10.326514959335327,3
10.326514959335327,0
10.326514959335327,3
10.326514959335327,5
10.326514959335327,73
10.405898571014404,16
10.405898571014404,11
10.405898571014404,3
10.405898571014404,6
10.405898571014404,0
10.405898571014404,0
10.405898571014404,0
10.405898571014404,0
10.405898571014404,0
10.517595291137695,4
10.517595291137695,0
10.517595291137695,4
10.517595291137695,0
10.517595291137695,0
10.517595291137695,4
10.517595291137695,0
10.517595291137695,0
10.517595291137695,0
10.517595291137695,0
10.612792730331421,0
10.612792730331421,3
10.612792730331421,0
10.612792730331421,3
10.612792730331421,0
10.612792730331421,0
10.612792730331421,0
10.612792730331421,2
10.612792730331421,0
10.612792730331421,0
10.708380460739136,0
10.7245454788208,5
10.7245454788208,0
10.7245454788208,1
10.7245454788208,0
10.7245454788208,0
10.7245454788208,0
10.7245454788208,0
10.7245454788208,0
10.7245454788208,0
10.821051120758057,0
10.821051120758057,0
10.821051120758057,0
10.821051120758057,0
10.821051120758057,0
10.821051120758057,1
10.821051120758057,0
10.821051120758057,0
10.821051120758057,0
10.821051120758057,0
10.929593324661255,0
10.929593324661255,0
10.929593324661255,0
10.929593324661255,0
10.929593324661255,0
10.929593324661255,0
10.929593324661255,0
10.929593324661255,0
10.929593324661255,0
10.929593324661255,1
11.024626016616821,6
11.024626016616821,0
11.024626016616821,0
11.026373386383057,0
11.026373386383057,0
11.026373386383057,0
11.026373386383057,0
11.026373386383057,0
11.026373386383057,1
11.026373386383057,0
11.105852603912354,0
11.105852603912354,0
11.12180495262146,0
11.12180495262146,0
11.12180495262146,0
11.12180495262146,0
11.12180495262146,0
11.12180495262146,0
11.12180495262146,3
11.2175612449646,0
11.2175612449646,0
11.2175612449646,0
11.2175612449646,1
11.2175612449646,1
11.2175612449646,0
11.2175612449646,0
11.2175612449646,0
11.2175612449646,0
11.2175612449646,0
11.297161340713501,0
11.297161340713501,0
11.297161340713501,0
11.297161340713501,2
11.297161340713501,0
11.297161340713501,4
11.297161340713501,0
11.297161340713501,1
11.297161340713501,0
11.407596349716187,0
11.407596349716187,4
11.407596349716187,0
11.407596349716187,0
11.407596349716187,0
11.407596349716187,0
11.407596349716187,1
11.407596349716187,0
11.407596349716187,3
11.501839399337769,0
11.501839399337769,0
11.501839399337769,3
11.501839399337769,0
11.501839399337769,0
11.501839399337769,0
11.501839399337769,0
11.501839399337769,0
11.501839399337769,0
11.501839399337769,0
11.603242874145508,0
11.603242874145508,0
11.603242874145508,4
11.603242874145508,2
11.603242874145508,2
11.603242874145508,0
11.603242874145508,0
11.603242874145508,0
11.603242874145508,0
11.603242874145508,0
11.70034646987915,0
11.702351093292236,0
11.702351093292236,0
11.702351093292236,0
11.702351093292236,0
11.702351093292236,0
11.702351093292236,0
11.702351093292236,1
11.702351093292236,0
11.799498081207275,0
11.799498081207275,0
11.799498081207275,0
11.799498081207275,0
11.799498081207275,0
11.799498081207275,0
11.799498081207275,0
11.799498081207275,5
11.799498081207275,0
11.799498081207275,0
11.882935285568237,0
11.882935285568237,0
11.882935285568237,0
11.882935285568237,0
11.882935285568237,0
11.882935285568237,6
11.882935285568237,7
11.882935285568237,0
11.882935285568237,3
11.997506141662598,4
11.997506141662598,0
11.997506141662598,1
11.997506141662598,0
11.997506141662598,0
11.997506141662598,1
11.997506141662598,0
11.999511241912842,3
11.999511241912842,0
11.999511241912842,3
12.098955869674683,0
12.098955869674683,0
12.098955869674683,0
12.098955869674683,0
12.098955869674683,0
12.098955869674683,20
12.098955869674683,0
12.098955869674683,0
12.098955869674683,0
12.100961685180664,0
12.201088428497314,1
12.201088428497314,1
12.201088428497314,0
12.201088428497314,0
12.201088428497314,0
12.201088428497314,0
12.201088428497314,5
12.201088428497314,0
12.201088428497314,0
12.201088428497314,0
12.201088428497314,0
12.305898427963257,0
12.305898427963257,0
12.30790400505066,0
12.30790400505066,0
12.30790400505066,6
12.30790400505066,0
12.30790400505066,0
12.30790400505066,0
12.30790400505066,0
12.30790400505066,0
12.408850193023682,8
12.408850193023682,0
12.408850193023682,0
12.408850193023682,0
12.408850193023682,0
12.408850193023682,0
12.408850193023682,0
12.408850193023682,0
12.408850193023682,0
12.408850193023682,0
12.502796411514282,0
12.502796411514282,0
12.502796411514282,0
12.502796411514282,0
12.502796411514282,0
12.502796411514282,0
12.502796411514282,3
12.502796411514282,2
12.502796411514282,0
12.58255124092102,6
12.598265171051025,4
12.598265171051025,0
12.598265171051025,0
12.598265171051025,0
12.598265171051025,0
12.598265171051025,0
12.598265171051025,0
12.598265171051025,0
12.693557262420654,2
12.693557262420654,0
12.693557262420654,4
12.693557262420654,0
12.693557262420654,0
12.693557262420654,0
12.693557262420654,0
12.693557262420654,0
12.693557262420654,3
12.693557262420654,0
12.785780906677246,1
12.785780906677246,0
12.785780906677246,0
12.785780906677246,0
12.785780906677246,0
12.785780906677246,0
12.785780906677246,0
12.785780906677246,1
12.785780906677246,0
12.880947828292847,3
12.880947828292847,0
12.880947828292847,0
12.880947828292847,1
12.880947828292847,0
12.880947828292847,0
12.880947828292847,0
12.880947828292847,0
12.880947828292847,0
12.963807106018066,2
12.963807106018066,4
12.963807106018066,0
12.963807106018066,1
12.963807106018066,0
12.963807106018066,0
12.963807106018066,0
12.963807106018066,0
12.963807106018066,0
13.06895136833191,1
13.06895136833191,0
13.07095742225647,0
13.07095742225647,1
13.07095742225647,0
13.07095742225647,0
13.07095742225647,2
13.07095742225647,0
13.07095742225647,0
13.07095742225647,0
13.16411280632019,0
13.16411280632019,2
13.16411280632019,0
13.16411280632019,0
13.16411280632019,0
13.16411280632019,0
13.16411280632019,0
13.166117668151855,2
13.166117668151855,0
13.249659299850464,0
13.249659299850464,2
13.249659299850464,0
13.249659299850464,0
13.249659299850464,0
13.249659299850464,0
13.249659299850464,0
13.249659299850464,0
13.249659299850464,0
13.249659299850464,0
13.345196008682251,0
13.345196008682251,0
13.345196008682251,0
13.345196008682251,5
13.345196008682251,0
13.345196008682251,0
13.345196008682251,0
13.345196008682251,0
13.345196008682251,0
13.441458940505981,0
13.441458940505981,1
13.441458940505981,0
13.441458940505981,0
13.441458940505981,0
13.441458940505981,0
13.441458940505981,0
13.441458940505981,0
13.441458940505981,7
13.544652938842773,0
13.544652938842773,1
13.544652938842773,2
13.544652938842773,0
13.544652938842773,0
13.544652938842773,0
13.544652938842773,5
13.544652938842773,0
13.544652938842773,2
13.631927728652954,0
13.631927728652954,0
13.631927728652954,0
13.631927728652954,0
13.631927728652954,0
13.631927728652954,0
13.631927728652954,0
13.631927728652954,0
13.631927728652954,0
13.631927728652954,0
13.728646039962769,6
13.728646039962769,0
13.728646039962769,0
13.728646039962769,3
13.728646039962769,0
13.728646039962769,0
13.728646039962769,0
13.728646039962769,0
13.728646039962769,0
13.824237823486328,0
13.824237823486328,1
13.824237823486328,0
13.824237823486328,0
13.824237823486328,0
13.824237823486328,0
13.824237823486328,0
13.824237823486328,0
13.824237823486328,0
13.91924786567688,0
13.91924786567688,2
13.91924786567688,0
13.91924786567688,0
13.91924786567688,4
13.91924786567688,0
13.91924786567688,0
13.91924786567688,0
13.91924786567688,0
13.91924786567688,6
14.014766931533813,0
14.014766931533813,0
14.014766931533813,0
14.014766931533813,0
14.014766931533813,0
14.014766931533813,0
14.014766931533813,1
14.014766931533813,0
14.014766931533813,2
14.111012697219849,0
14.111012697219849,1
14.111012697219849,0
14.111012697219849,0
14.111012697219849,0
14.111012697219849,0
14.111012697219849,0
14.111012697219849,2
14.111012697219849,0
14.190646171569824,1
14.190646171569824,0
14.190646171569824,0
14.190646171569824,0
14.190646171569824,0
14.190646171569824,0
14.190646171569824,2
14.190646171569824,0
14.190646171569824,0
14.286020278930664,1
14.286020278930664,0
14.286020278930664,0
14.286020278930664,1
14.286020278930664,0
14.286020278930664,0
14.286020278930664,0
14.286020278930664,0
14.286020278930664,0
14.391761302947998,0
14.391761302947998,7
14.391761302947998,0
14.391761302947998,6
14.391761302947998,1
14.393766164779663,0
14.393766164779663,0
14.393766164779663,0
14.393766164779663,0
14.393766164779663,1
14.477753400802612,1
14.477753400802612,0
14.477753400802612,0
14.477753400802612,0
14.477753400802612,1
14.477753400802612,2
14.477753400802612,0
14.477753400802612,0
14.477753400802612,0
14.573410987854004,0
14.573410987854004,0
14.573410987854004,0
14.573410987854004,0
14.573410987854004,0
14.573410987854004,1
14.573410987854004,0
14.573410987854004,0
14.573410987854004,0
14.673811912536621,0
14.673811912536621,0
14.673811912536621,0
14.673811912536621,1
14.675817728042603,0
14.675817728042603,0
14.675817728042603,0
14.675817728042603,1
14.675817728042603,0
14.675817728042603,0
14.763302564620972,0
14.763302564620972,13
14.763302564620972,0
14.763302564620972,0
14.763302564620972,1
14.763302564620972,0
14.763302564620972,0
14.763302564620972,0
14.763302564620972,0
14.864312648773193,1
14.864312648773193,0
14.864312648773193,0
14.864312648773193,0
14.864312648773193,7
14.864312648773193,0
14.864312648773193,4
14.864312648773193,0
14.864312648773193,0
14.957702159881592,1
14.957702159881592,0
14.957702159881592,0
14.957702159881592,5
14.957702159881592,7
14.957702159881592,2
14.957702159881592,1
14.957702159881592,0
14.957702159881592,0
15.049546241760254,4
15.049546241760254,4
15.049546241760254,9
15.049546241760254,0
15.049546241760254,0
15.049546241760254,4
15.049546241760254,0
15.049546241760254,0
15.049546241760254,0
15.049546241760254,12
15.144099473953247,1
15.144099473953247,0
15.144099473953247,0
15.144099473953247,2
15.148022651672363,0
15.148022651672363,2
15.148022651672363,0
15.148022651672363,0
15.148022651672363,0
15.240467071533203,0
15.240467071533203,0
15.240467071533203,8
15.240467071533203,1
15.240467071533203,0
15.240467071533203,0
15.240467071533203,4
15.240467071533203,0
15.240467071533203,0
15.335005760192871,0
15.335005760192871,0
15.335005760192871,0
15.335005760192871,0
15.335005760192871,0
15.335005760192871,2
15.335005760192871,0
15.335005760192871,0
15.335005760192871,5
15.425394535064697,1
15.425394535064697,1
15.425394535064697,0
15.425394535064697,0
15.425394535064697,0
15.425394535064697,0
15.425394535064697,6
15.425394535064697,11
15.425394535064697,0
15.425394535064697,0
15.521353721618652,3
15.521353721618652,0
15.521353721618652,0
15.521353721618652,1
15.521353721618652,0
15.521353721618652,2
15.521353721618652,0
15.521353721618652,0
15.521353721618652,5
15.615572214126587,0
15.615572214126587,0
15.615572214126587,0
15.615572214126587,0
15.615572214126587,0
15.615572214126587,2
15.615572214126587,1
15.615572214126587,5
15.617577314376831,0
15.701462984085083,2
15.701462984085083,0
15.701462984085083,0
15.701462984085083,0
15.701462984085083,0
15.701462984085083,11
15.701462984085083,0
15.701462984085083,0
15.701462984085083,0
15.701462984085083,0
15.806828022003174,0
15.806828022003174,7
15.806828022003174,0
15.806828022003174,0
15.806828022003174,3
15.806828022003174,4
15.806828022003174,0
15.806828022003174,0
15.806828022003174,1
15.90024185180664,0
15.90024185180664,0
15.90024185180664,2
15.90024185180664,0
15.90024185180664,0
15.902246713638306,0
15.902246713638306,0
15.902246713638306,0
15.902246713638306,2
15.987306833267212,0
15.987306833267212,0
15.987306833267212,0
15.987306833267212,0
15.987306833267212,0
15.987306833267212,0
15.987306833267212,0
15.987306833267212,0
15.987306833267212,0
16.08670473098755,0
16.0883150100708,0
16.0883150100708,0
16.0883150100708,4
16.0883150100708,7
16.0883150100708,0
16.0883150100708,5
16.0883150100708,0
16.0883150100708,5
16.180987119674683,2
16.180987119674683,2
16.180987119674683,0
16.180987119674683,0
16.180987119674683,0
16.180987119674683,8
16.180987119674683,0
16.18299913406372,0
16.18299913406372,0
16.18299913406372,0
16.27469038963318,1
16.27469038963318,0
16.27469038963318,3
16.27469038963318,2
16.27469038963318,0
16.27469038963318,1
16.27469038963318,0
16.27469038963318,2
16.27469038963318,0
16.370749950408936,7
16.370749950408936,2
16.370749950408936,0
16.370749950408936,0
16.370749950408936,0
16.370749950408936,11
16.370749950408936,0
16.370749950408936,0
16.370749950408936,0
16.46466588973999,0
16.46466588973999,0
16.46466588973999,0
16.46466588973999,19
16.46466588973999,1
16.46466588973999,6
16.46466588973999,4
16.46466588973999,9
16.46466588973999,0
16.46466588973999,13
16.562159538269043,0
16.562159538269043,2
16.562159538269043,0
16.562159538269043,0
16.562159538269043,0
16.562159538269043,0
16.562159538269043,3
16.562159538269043,8
16.562159538269043,0
16.65647530555725,27
16.65647530555725,14
16.65647530555725,0
16.65647530555725,0
16.65647530555725,0
16.65647530555725,0
16.65647530555725,0
16.65647530555725,0
16.65647530555725,0
16.65647530555725,0
16.75145649909973,0
16.75145649909973,0
16.75145649909973,0
16.75145649909973,0
16.75145649909973,0
16.75145649909973,0
16.75145649909973,0
16.75145649909973,0
16.75145649909973,1
16.846732139587402,0
16.846732139587402,0
16.846732139587402,0
16.846732139587402,1
16.846732139587402,7
16.846732139587402,0
16.846732139587402,0
16.846732139587402,0
16.846732139587402,9
16.9372980594635,2
16.9372980594635,0
16.9372980594635,1
16.9372980594635,0
16.9372980594635,9
16.9372980594635,0
16.9372980594635,0
16.9372980594635,3
16.9372980594635,2
17.036267518997192,0
17.036267518997192,0
17.036267518997192,0
17.036267518997192,0
17.036267518997192,0
17.036267518997192,0
17.036267518997192,10
17.03777265548706,24
17.03777265548706,0
17.03777265548706,2
17.133288383483887,1
17.133288383483887,0
17.133288383483887,4
17.133288383483887,7
17.133288383483887,32
17.133288383483887,8
17.133288383483887,0
17.133288383483887,6
17.133288383483887,5
17.226287364959717,51
17.226287364959717,95
17.226287364959717,66
17.226287364959717,18
17.226287364959717,79
17.226287364959717,83
17.226287364959717,125
17.226287364959717,59
17.226287364959717,10
17.324007034301758,16
17.324007034301758,34
17.324007034301758,140
17.324007034301758,48
17.324007034301758,119
17.324007034301758,18
17.324007034301758,115
17.324007034301758,167
17.324007034301758,72
17.324007034301758,197
17.402742624282837,354
17.402742624282837,56
17.402742624282837,83
17.402742624282837,32
17.402742624282837,95
17.402742624282837,91
17.402742624282837,154
17.402742624282837,42
17.402742624282837,29
17.499610662460327,159
17.499610662460327,0
17.499610662460327,26
17.499610662460327,12
17.499610662460327,67
17.499610662460327,207
17.499610662460327,24
17.499610662460327,229
17.499610662460327,68
17.593399047851562,69
17.593399047851562,181
17.593399047851562,175
17.593399047851562,145
17.593399047851562,50
17.593399047851562,79
17.593399047851562,64
17.593399047851562,55
17.593399047851562,293
17.593399047851562,86
17.713037490844727,257
17.713037490844727,4
17.713037490844727,225
17.713037490844727,52
17.713037490844727,5
17.713037490844727,44
17.713037490844727,106
17.713037490844727,288
17.713037490844727,29
17.713037490844727,225
17.800079345703125,30
17.800079345703125,2
17.800079345703125,61
17.800079345703125,41
17.800079345703125,72
17.800079345703125,80
17.800079345703125,13
17.800079345703125,398
17.800079345703125,608
17.800079345703125,38
17.91407799720764,225
17.91407799720764,37
17.91407799720764,46
17.91407799720764,115
17.91407799720764,190
17.91407799720764,278
17.91407799720764,60
17.91407799720764,106
17.91407799720764,410
18.0126850605011,178
18.0126850605011,65
18.0126850605011,112
18.014690160751343,157
18.014690160751343,53
18.014690160751343,42
18.014690160751343,192
18.014690160751343,223
18.014690160751343,49
18.014690160751343,18
18.102739810943604,29
18.102739810943604,26
18.102739810943604,0
18.102739810943604,265
18.102739810943604,209
18.102739810943604,42
18.102739810943604,112
18.102739810943604,110
18.102739810943604,215
18.102739810943604,123
18.21402406692505,226
18.21402406692505,30
18.21402406692505,31
18.21402406692505,128
18.21402406692505,126
18.21402406692505,29
18.21402406692505,45
18.21402406692505,217
18.21402406692505,18
18.21402406692505,19
18.31933069229126,108
18.31933069229126,32
18.31933069229126,146
18.31933069229126,41
18.31933069229126,117
18.31933069229126,81
18.31933069229126,21
18.31933069229126,347
18.31933069229126,171
18.31933069229126,82
18.421565532684326,13
18.421565532684326,28
18.421565532684326,16
18.421565532684326,50
18.421565532684326,188
18.421565532684326,178
18.421565532684326,16
18.421565532684326,21
18.421565532684326,103
18.421565532684326,27
18.523144245147705,36
18.523144245147705,161
18.523144245147705,97
18.523144245147705,273
18.523144245147705,151
18.523144245147705,129
18.523144245147705,70
18.523144245147705,20
18.523144245147705,1
18.523144245147705,214
18.612739324569702,157
18.612739324569702,4
18.612739324569702,186
18.612739324569702,71
18.612739324569702,162
18.612739324569702,345
18.612739324569702,51
18.612739324569702,0
18.612739324569702,42
18.612739324569702,23
18.725168704986572,326
18.725168704986572,7
18.725168704986572,165
18.725168704986572,195
18.725168704986572,70
18.725168704986572,9
18.725168704986572,8
18.725168704986572,157
18.725168704986572,47
18.725168704986572,181
18.820683002471924,64
18.820683002471924,11
18.820683002471924,32
18.820683002471924,284
18.820683002471924,201
18.820683002471924,139
18.820683002471924,79
18.820683002471924,17
18.820683002471924,184
18.915809392929077,16
18.915809392929077,18
18.915809392929077,56
18.915809392929077,69
18.915809392929077,60
18.915809392929077,126
18.915809392929077,21
18.915809392929077,73
18.915809392929077,6
18.915809392929077,217
19.01559352874756,174
19.01559352874756,226
19.01559352874756,274
19.01759910583496,298
19.01759910583496,1
19.01759910583496,198
19.01759910583496,8
19.01759910583496,18
19.01759910583496,36
19.113959789276123,40
19.113959789276123,71
19.113959789276123,459
19.113959789276123,68
19.113959789276123,86
19.115710020065308,1
19.115710020065308,65
19.115710020065308,5
19.115710020065308,125
19.115710020065308,16
19.20150327682495,134
19.20150327682495,108
19.20150327682495,307
19.20150327682495,74
19.20150327682495,196
19.20150327682495,353
19.20150327682495,55
19.20150327682495,248
19.20150327682495,6
19.307003259658813,228
19.307003259658813,90
19.307003259658813,11
19.309008359909058,32
19.309008359909058,141
19.309008359909058,33
19.309008359909058,8
19.309008359909058,215
19.309008359909058,8
19.309008359909058,30
19.392715454101562,61
19.392715454101562,85
19.392715454101562,113
19.392715454101562,190
19.392715454101562,235
19.392715454101562,34
19.392715454101562,32
19.392715454101562,70
19.392715454101562,29
19.502177953720093,194
19.502177953720093,246
19.502177953720093,135
19.502177953720093,183
19.502177953720093,13
19.502177953720093,7
19.502177953720093,68
19.502177953720093,18
19.502177953720093,6
19.502177953720093,414
19.59847116470337,1
19.59847116470337,165
19.59847116470337,34
19.59847116470337,18
19.59847116470337,149
19.59847116470337,82
19.59847116470337,14
19.59847116470337,0
19.59847116470337,66
19.70526123046875,147
19.70526123046875,338
19.70526123046875,91
19.70526123046875,69
19.70526123046875,352
19.70526123046875,44
19.70526123046875,51
19.70526123046875,21
19.70526123046875,13
19.70526123046875,75
19.707266569137573,351
19.80855894088745,210
19.80855894088745,176
19.80855894088745,381
19.80855894088745,187
19.80855894088745,148
19.80855894088745,128
19.80855894088745,54
19.80855894088745,1
19.80855894088745,59
19.80855894088745,205
19.901077032089233,49
19.901077032089233,1
19.901077032089233,39
19.901077032089233,299
19.901077032089233,12
19.901077032089233,244
19.901077032089233,119
19.901077032089233,78
19.901077032089233,204
19.901077032089233,7
20.01249408721924,144
20.01249408721924,9
20.01249408721924,109
20.01249408721924,6
20.01249408721924,0
20.01249408721924,134
20.01249408721924,10
20.01249408721924,99
20.01449990272522,106
20.01449990272522,139
20.108450889587402,89
20.108450889587402,190
20.108450889587402,150
20.108450889587402,159
20.108450889587402,117
20.108450889587402,159
20.108450889587402,75
20.108450889587402,20
20.108450889587402,213
20.108450889587402,131
20.209550142288208,486
20.209550142288208,72
20.209550142288208,34
20.209550142288208,1
20.209550142288208,254
20.209550142288208,138
20.209550142288208,165
20.209550142288208,31
20.209550142288208,11
20.30471658706665,282
20.30471658706665,17
20.30471658706665,29
20.30471658706665,0
20.30471658706665,0
20.30471658706665,0
20.30471658706665,82
20.30471658706665,724
20.30471658706665,59
20.39434242248535,36
20.39434242248535,0
20.39434242248535,4
20.39434242248535,76
20.39434242248535,14
20.39434242248535,12
20.39434242248535,4
20.39434242248535,28
20.39434242248535,376
20.489715814590454,42
20.489715814590454,56
20.489715814590454,24
20.489715814590454,5
20.489715814590454,0
20.489715814590454,9
20.489715814590454,1
20.489715814590454,1
20.489715814590454,0
20.489715814590454,0
20.58468008041382,0
20.58468008041382,6
20.58468008041382,0
20.58468008041382,2
20.58468008041382,0
20.58468008041382,6
20.58468008041382,5
20.58468008041382,9
20.58468008041382,0
20.6811363697052,4
20.6811363697052,0
20.6811363697052,0
20.6811363697052,1
20.6811363697052,0
20.6811363697052,0
20.6811363697052,0
20.6811363697052,0
20.6811363697052,0
20.760185956954956,2
20.760185956954956,0
20.760185956954956,1
20.760185956954956,0
20.760185956954956,0
20.760185956954956,1
20.760185956954956,0
20.775891542434692,0
20.775891542434692,0
20.868892431259155,3
20.868892431259155,0
20.868892431259155,2
20.868892431259155,0
20.868892431259155,0
20.868892431259155,0
20.868892431259155,0
20.868892431259155,0
20.868892431259155,0
20.868892431259155,0
20.963183403015137,0
20.963183403015137,0
20.963183403015137,0
20.96518874168396,1
20.96518874168396,0
20.96518874168396,0
20.96518874168396,0
20.96518874168396,0
20.96518874168396,3
21.0456383228302,0
21.0456383228302,0
21.0456383228302,0
21.0456383228302,0
21.0456383228302,0
21.0456383228302,0
21.0456383228302,0
21.0456383228302,0
21.0456383228302,0
21.15777039527893,0
21.15777039527893,0
21.15777039527893,0
21.15777039527893,0
21.15777039527893,0
21.15777039527893,0
21.15777039527893,0
21.15777039527893,0
21.15777039527893,0
21.15777039527893,0
21.25312352180481,0
21.25312352180481,0
21.25312352180481,0
21.25312352180481,0
21.25312352180481,0
21.25312352180481,0
21.25312352180481,0
21.25312352180481,2
21.25312352180481,0
21.25312352180481,0
21.348448753356934,4
21.348448753356934,0
21.348448753356934,0
21.348448753356934,0
21.348448753356934,0
21.348448753356934,0
21.348448753356934,0
21.348448753356934,0
21.348448753356934,0
21.45046305656433,3
21.45046305656433,0
21.45046305656433,0
21.45046305656433,1
21.45046305656433,0
21.45046305656433,0
21.45046305656433,0
21.45046305656433,0
21.45046305656433,1
21.452468395233154,1
21.54023575782776,7
21.54023575782776,0
21.54023575782776,7
21.54023575782776,10
21.54023575782776,2
21.54023575782776,3
21.54023575782776,0
21.54023575782776,0
21.54023575782776,0
21.54023575782776,0
21.651789665222168,0
21.651789665222168,0
21.651789665222168,0
21.651789665222168,0
21.651789665222168,0
21.651789665222168,0
21.651789665222168,0
21.651789665222168,0
21.651789665222168,0
21.651789665222168,0
21.74728488922119,0
21.74728488922119,0
21.74728488922119,0
21.74728488922119,0
21.74728488922119,0
21.74728488922119,0
21.74728488922119,0
21.74728488922119,2
21.74728488922119,0
21.74728488922119,0
21.841973304748535,0
21.841973304748535,0
21.841973304748535,0
21.841973304748535,0
21.841973304748535,0
21.841973304748535,0
21.841973304748535,0
21.841973304748535,0
21.841973304748535,1
21.841973304748535,0
21.953747749328613,0
21.953747749328613,0
21.953747749328613,0
21.953747749328613,0
21.953747749328613,0
21.953747749328613,0
21.953747749328613,0
21.953747749328613,0
21.953747749328613,0
21.953747749328613,2
22.049349784851074,0
22.049349784851074,0
22.049349784851074,0
22.049349784851074,0
22.049349784851074,2
22.049349784851074,0
22.049349784851074,0
22.049349784851074,0
22.049349784851074,0
22.14490056037903,0
22.14490056037903,0
22.14490056037903,0
22.14490056037903,0
22.14490056037903,0
22.14490056037903,13
22.14490056037903,0
22.14490056037903,0
22.14490056037903,0
22.14490056037903,0
22.256460905075073,0
22.256460905075073,1
22.256460905075073,0
22.256460905075073,4
22.256460905075073,0
22.256460905075073,0
22.256460905075073,0
22.256460905075073,0
22.256460905075073,0
22.256460905075073,0
22.351588487625122,2
22.351588487625122,1
22.351588487625122,3
22.351588487625122,4
22.351588487625122,0
22.351588487625122,3
22.351588487625122,0
22.351588487625122,0
22.351588487625122,0
22.351588487625122,0
22.456287622451782,0
22.456287622451782,3
22.456287622451782,0
22.456287622451782,2
22.456287622451782,0
22.456287622451782,0
22.456287622451782,0
22.456287622451782,0
22.456287622451782,0
22.456287622451782,0
22.55898666381836,0
22.55898666381836,5
22.55898666381836,0
22.55898666381836,2
22.55898666381836,0
22.55898666381836,3
22.55898666381836,0
22.55898666381836,0
22.55898666381836,0
22.55898666381836,4
22.63862681388855,0
22.63862681388855,4
22.63862681388855,0
22.63862681388855,0
22.63862681388855,0
22.63862681388855,0
22.63862681388855,0
22.63862681388855,0
22.63862681388855,0
22.748757123947144,0
22.748757123947144,0
22.748757123947144,6
22.748757123947144,0
22.748757123947144,0
22.748757123947144,2
22.748757123947144,0
22.748757123947144,6
22.748757123947144,0
22.748757123947144,1
22.84057593345642,0
22.84057593345642,6
22.84057593345642,0
22.84057593345642,0
22.84057593345642,3
22.84057593345642,0
22.84057593345642,0
22.84057593345642,0
22.84057593345642,0
22.927417278289795,0
22.927417278289795,0
22.927417278289795,1
22.927417278289795,0
22.927417278289795,0
22.927417278289795,0
22.927417278289795,0
22.927417278289795,1
22.927417278289795,0
23.022217750549316,2
23.022217750549316,3
23.022217750549316,0
23.022217750549316,0
23.022217750549316,1
23.022217750549316,0
23.022217750549316,0
23.022217750549316,0
23.022217750549316,2
23.125200986862183,5
23.125200986862183,0
23.125200986862183,0
23.125200986862183,1
23.125200986862183,1
23.125200986862183,0
23.125200986862183,3
23.125200986862183,0
23.125200986862183,3
23.125200986862183,0
23.22150492668152,0
23.22150492668152,10
23.22150492668152,0
23.22150492668152,0
23.22150492668152,10
23.22150492668152,0
23.22150492668152,0
23.22150492668152,0
23.22150492668152,0
23.307569980621338,0
23.307569980621338,7
23.307569980621338,2
23.307569980621338,0
23.307569980621338,0
23.307569980621338,0
23.307569980621338,0
23.307569980621338,0
23.307569980621338,1
23.408368587493896,0
23.408368587493896,5
23.408368587493896,0
23.408368587493896,2
23.408368587493896,6
23.408368587493896,9
23.408368587493896,0
23.408368587493896,4
23.408368587493896,3
23.497175931930542,0
23.497175931930542,0
23.497175931930542,0
23.497175931930542,0
23.497175931930542,0
23.497175931930542,0
23.497175931930542,0
23.497175931930542,1
23.497175931930542,0
23.497175931930542,0
23.596399784088135,0
23.596399784088135,0
23.596399784088135,3
23.596399784088135,5
23.596399784088135,0
23.596399784088135,0
23.596399784088135,0
23.596399784088135,0
23.596399784088135,12
23.691420555114746,0
23.691420555114746,0
23.691420555114746,0
23.691420555114746,0
23.691420555114746,0
23.691420555114746,0
23.691420555114746,0
23.691420555114746,0
23.691420555114746,0
23.783487796783447,0
23.783487796783447,1
23.783487796783447,0
23.783487796783447,0
23.783487796783447,0
23.783487796783447,0
23.783487796783447,0
23.783487796783447,0
23.783487796783447,0
23.783487796783447,0
23.879303693771362,0
23.879303693771362,0
23.879303693771362,0
23.879303693771362,0
23.879303693771362,2
23.879303693771362,3
23.879303693771362,0
23.879303693771362,0
23.879303693771362,0
23.974462509155273,0
23.974462509155273,0
23.974462509155273,0
23.974462509155273,0
23.974462509155273,0
23.974462509155273,2
23.974462509155273,0
23.974462509155273,0
23.974462509155273,1
24.054429531097412,2
24.054429531097412,1
24.054429531097412,0
24.054429531097412,2
24.054429531097412,0
24.054429531097412,3
24.054429531097412,0
24.054429531097412,0
24.054429531097412,0
24.161680698394775,0
24.161680698394775,3
24.161680698394775,0
24.161680698394775,0
24.161680698394775,0
24.161680698394775,0
24.161680698394775,0
24.161680698394775,0
24.161680698394775,0
24.257208585739136,6
24.257208585739136,0
24.257208585739136,0
24.257208585739136,0
24.257208585739136,0
24.257208585739136,0
24.257208585739136,0
24.257208585739136,2
24.257208585739136,0
24.257208585739136,2
24.339332103729248,0
24.339332103729248,0
24.339332103729248,0
24.339332103729248,3
24.339332103729248,0
24.339332103729248,7
24.339332103729248,0
24.339332103729248,0
24.339332103729248,0
24.434329509735107,0
24.434329509735107,0
24.434329509735107,0
24.434329509735107,0
24.434329509735107,0
24.434329509735107,0
24.434329509735107,0
24.434329509735107,0
24.434329509735107,6
24.434329509735107,1
24.540520906448364,0
24.540520906448364,0
24.540520906448364,0
24.540520906448364,0
24.540520906448364,0
24.540520906448364,1
24.540520906448364,8
24.540520906448364,0
24.540520906448364,1
24.63667106628418,0
24.63667106628418,0
24.63667106628418,0
24.63667106628418,0
24.63667106628418,3
24.63667106628418,0
24.63667106628418,2
24.63667106628418,1
24.63667106628418,3
24.73366069793701,0
24.73366069793701,1
24.73366069793701,0
24.73366069793701,0
24.73366069793701,0
24.73366069793701,0
24.73366069793701,0
24.73366069793701,0
24.73366069793701,6
24.73366069793701,0
24.827436447143555,0
24.827436447143555,0
24.827436447143555,0
24.827436447143555,5
24.827436447143555,2
24.827436447143555,7
24.827436447143555,3
24.827436447143555,2
24.827436447143555,0
24.912118196487427,0
24.912118196487427,0
24.912118196487427,0
24.912118196487427,0
24.912118196487427,0
24.912118196487427,0
24.912118196487427,0
24.912118196487427,0
24.912118196487427,2
25.008450031280518,3
25.008450031280518,0
25.008450031280518,0
25.008450031280518,0
25.008450031280518,0
25.008450031280518,0
25.008450031280518,4
25.008450031280518,6
25.008450031280518,0
25.107243537902832,0
25.107243537902832,0
25.107243537902832,0
25.107243537902832,0
25.107243537902832,0
25.107243537902832,0
25.107243537902832,2
25.107243537902832,4
25.107243537902832,0
25.199008464813232,2
25.199008464813232,0
25.199008464813232,4
25.199008464813232,12
25.199008464813232,4
25.199008464813232,0
25.199008464813232,0
25.199008464813232,0
25.199008464813232,0
25.199008464813232,1
25.29222559928894,0
25.29222559928894,4
25.29222559928894,0
25.29222559928894,7
25.29222559928894,3
25.29222559928894,0
25.29222559928894,0
25.29222559928894,0
25.29222559928894,0
25.38489532470703,0
25.38489532470703,12
25.38489532470703,0
25.38489532470703,0
25.38489532470703,6
25.38489532470703,0
25.38489532470703,0
25.38489532470703,0
25.38489532470703,4
25.479230642318726,0
25.479230642318726,3
25.479230642318726,0
25.479230642318726,1
25.479230642318726,0
25.479230642318726,0
25.479230642318726,1
25.479230642318726,0
25.479230642318726,0
25.5655779838562,0
25.5655779838562,0
25.5655779838562,3
25.5655779838562,0
25.5655779838562,1
25.5655779838562,0
25.5655779838562,0
25.5655779838562,0
25.5655779838562,1
25.660157442092896,2
25.660157442092896,1
25.660157442092896,2
25.660157442092896,0
25.660157442092896,0
25.660157442092896,0
25.660157442092896,0
25.660157442092896,0
25.660157442092896,0
25.660157442092896,0
25.75631546974182,0
25.75631546974182,6
25.75631546974182,2
25.75631546974182,2
25.75631546974182,0
25.75631546974182,0
25.75631546974182,0
25.75631546974182,2
25.75631546974182,0
25.85136127471924,0
25.85136127471924,2
25.85136127471924,9
25.85136127471924,0
25.85136127471924,2
25.85136127471924,1
25.85136127471924,0
25.85136127471924,1
25.85136127471924,0
25.94726872444153,0
25.94726872444153,0
25.94726872444153,2
25.94726872444153,0
25.94726872444153,2
25.94726872444153,3
25.94726872444153,1
25.94726872444153,3
25.94726872444153,0
25.94726872444153,0
26.04266858100891,0
26.04266858100891,0
26.04266858100891,1
26.04266858100891,7
26.04266858100891,3
26.04266858100891,0
26.04266858100891,0
26.04266858100891,5
26.04266858100891,2
26.138198375701904,1
26.138198375701904,0
26.138198375701904,0
26.138198375701904,0
26.138198375701904,0
26.138198375701904,22
26.138198375701904,4
26.138198375701904,0
26.138198375701904,0
26.23365354537964,1
26.23365354537964,0
26.23365354537964,13
26.23365354537964,0
26.23365354537964,9
26.23365354537964,1
26.23365354537964,7
26.23365354537964,0
26.23365354537964,0
26.313271045684814,0
26.313271045684814,0
26.313271045684814,7
26.313271045684814,0
26.313271045684814,4
26.313271045684814,0
26.313271045684814,13
26.313271045684814,1
26.313271045684814,0
26.313271045684814,0
26.409170150756836,0
26.409170150756836,4
26.409170150756836,0
26.409170150756836,0
26.409170150756836,0
26.409170150756836,0
26.409170150756836,0
26.409170150756836,0
26.409170150756836,0
26.5044047832489,3
26.5044047832489,1
26.5044047832489,0
26.5044047832489,0
26.5044047832489,0
26.5044047832489,2
26.5044047832489,0
26.5044047832489,5
26.5044047832489,0
26.600375413894653,4
26.600375413894653,0
26.600375413894653,0
26.600375413894653,6
26.600375413894653,0
26.600375413894653,0
26.600375413894653,0
26.600375413894653,0
26.600375413894653,2
26.70310378074646,1
26.70310378074646,9
26.70310378074646,2
26.70310378074646,27
26.70310378074646,0
26.70310378074646,11
26.70310378074646,9
26.70310378074646,0
26.70310378074646,0
26.790393829345703,9
26.790393829345703,14
26.790393829345703,0
26.790393829345703,12
26.790393829345703,2
26.790393829345703,21
26.790393829345703,2
26.790393829345703,2
26.790393829345703,0
26.790393829345703,11
26.892515897750854,7
26.892515897750854,47
26.892515897750854,55
26.892515897750854,1
26.892515897750854,16
26.892515897750854,8
26.892515897750854,0
26.892515897750854,14
26.892515897750854,6
26.985891580581665,26
26.985891580581665,30
26.985891580581665,112
26.985891580581665,79
26.985891580581665,15
26.985891580581665,77
26.985891580581665,26
26.985891580581665,206
26.985891580581665,504
27.077958345413208,17
27.077958345413208,356
27.077958345413208,278
27.077958345413208,196
27.077958345413208,152
27.08050513267517,357
27.08050513267517,0
27.08050513267517,25
27.08050513267517,10
27.173657417297363,195
27.173657417297363,70
27.173657417297363,175
27.173657417297363,16
27.173657417297363,112
27.173657417297363,209
27.173657417297363,36
27.173657417297363,26
27.173657417297363,59
27.264809370040894,57
27.264809370040894,133
27.26895499229431,18
27.26895499229431,78
27.26895499229431,234
27.26895499229431,169
27.26895499229431,144
27.26895499229431,156
27.26895499229431,93
27.26895499229431,506
27.363683938980103,57
27.363683938980103,52
27.363683938980103,4
27.363683938980103,34
27.363683938980103,107
27.363683938980103,158
27.363683938980103,120
27.363683938980103,79
27.363683938980103,90
27.363683938980103,128
27.45926070213318,305
27.45926070213318,98
27.45926070213318,122
27.45926070213318,93
27.4753839969635,80
27.4753839969635,134
27.4753839969635,39
27.4753839969635,7
27.4753839969635,147
27.4753839969635,125
27.57717752456665,199
27.57717752456665,23
27.57717752456665,25
27.57717752456665,21
27.57717752456665,61
27.57717752456665,321
27.57717752456665,284
27.57717752456665,0
27.57717752456665,106
27.57717752456665,301
27.681248903274536,2
27.681248903274536,114
27.681248903274536,0
27.681248903274536,38
27.681248903274536,21
27.681248903274536,5
27.681248903274536,86
27.681248903274536,117
27.681248903274536,41
27.681248903274536,231
27.783706665039062,6
27.783706665039062,0
27.783706665039062,224
27.783706665039062,3
27.783706665039062,180
27.783706665039062,140
27.783706665039062,4
27.783706665039062,20
27.783706665039062,24
27.783706665039062,57
27.871559143066406,20
27.871559143066406,207
27.871559143066406,71
27.871559143066406,33
27.871559143066406,103
27.871559143066406,66
27.871559143066406,15
27.871559143066406,147
27.887310028076172,89
27.887310028076172,8
27.987149000167847,76
27.987149000167847,98
27.987149000167847,112
27.987149000167847,57
27.987149000167847,25
27.987149000167847,234
27.987149000167847,67
27.987149000167847,100
27.987149000167847,25
27.987149000167847,0
28.079729318618774,59
28.079729318618774,93
28.079729318618774,65
28.079729318618774,139
28.079729318618774,147
28.079729318618774,99
28.079729318618774,11
28.079729318618774,2
28.079729318618774,8
28.079729318618774,118
28.189653158187866,89
28.189653158187866,46
28.189653158187866,273
28.189653158187866,112
28.189653158187866,32
28.189653158187866,126
28.189653158187866,45
28.189653158187866,40
28.189653158187866,52
28.189653158187866,4
28.28532576560974,132
28.28532576560974,67
28.28532576560974,43
28.28532576560974,42
28.28532576560974,245
28.28532576560974,62
28.28532576560974,189
28.28532576560974,55
28.28532576560974,268
28.28532576560974,16
28.380277395248413,101
28.380277395248413,14
28.380277395248413,300
28.380277395248413,91
28.380277395248413,35
28.380277395248413,50
28.380277395248413,109
28.380277395248413,46
28.380277395248413,160
28.487494230270386,121
28.487494230270386,7
28.487494230270386,38
28.487494230270386,35
28.487494230270386,94
28.487494230270386,13
28.487494230270386,143
28.487494230270386,123
28.487494230270386,25
28.487494230270386,104
28.58320665359497,256
28.58320665359497,256
28.58320665359497,103
28.58320665359497,103
28.58320665359497,94
28.58320665359497,98
28.58320665359497,222
28.58320665359497,19
28.58320665359497,92
28.68368697166443,24
28.68368697166443,81
28.68368697166443,210
28.68368697166443,3
28.68368697166443,8
28.68368697166443,93
28.68368697166443,30
28.68368697166443,104
28.68368697166443,208
28.68368697166443,36
28.779764413833618,37
28.779764413833618,45
28.779764413833618,275
28.779764413833618,57
28.779764413833618,50
28.779764413833618,72
28.779764413833618,130
28.779764413833618,69
28.779764413833618,129
28.779764413833618,283
28.88462734222412,89
28.88462734222412,212
28.88462734222412,2
28.88462734222412,86
28.88462734222412,4
28.88462734222412,48
28.88462734222412,91
28.88462734222412,7
28.88462734222412,79
28.88462734222412,50
28.986051559448242,58
28.986051559448242,82
28.986051559448242,261
28.986051559448242,67
28.986051559448242,11
28.986051559448242,123
28.986051559448242,125
28.986051559448242,10
28.986051559448242,39
28.986051559448242,121
29.0811984539032,2
29.0811984539032,79
29.0811984539032,68
29.0811984539032,77
29.0811984539032,168
29.0811984539032,96
29.0811984539032,85
29.0811984539032,35
29.0811984539032,173
29.0811984539032,110
29.192917346954346,54
29.192917346954346,214
29.192917346954346,87
29.192917346954346,101
29.192917346954346,199
29.192917346954346,175
29.192917346954346,152
29.192917346954346,0
29.192917346954346,61
29.192917346954346,75
29.2888822555542,102
29.2888822555542,158
29.2888822555542,19
29.2888822555542,104
29.2888822555542,37
29.2888822555542,78
29.2888822555542,41
29.2888822555542,153
29.2888822555542,31
29.2888822555542,73
29.385240077972412,47
29.385240077972412,172
29.385240077972412,97
29.385240077972412,69
29.385240077972412,45
29.385240077972412,87
29.385240077972412,0
29.385240077972412,57
29.385240077972412,42
29.481037855148315,197
29.481037855148315,117
29.481037855148315,110
29.481037855148315,18
29.481037855148315,15
29.481037855148315,0
29.481037855148315,197
29.481037855148315,242
29.481037855148315,5
29.481037855148315,32
29.575601816177368,235
29.575601816177368,72
29.575601816177368,14
29.575601816177368,2
29.575601816177368,17
29.575601816177368,32
29.575601816177368,58
29.575601816177368,121
29.575601816177368,225
29.680885553359985,24
29.680885553359985,83
29.680885553359985,41
29.680885553359985,52
29.680885553359985,9
29.680885553359985,96
29.680885553359985,68
29.680885553359985,203
29.680885553359985,89
29.680885553359985,114
29.77687430381775,1
29.77687430381775,12
29.77687430381775,60
29.77687430381775,112
29.77687430381775,56
29.77687430381775,157
29.77687430381775,83
29.77687430381775,49
29.77687430381775,133
29.877500534057617,286
29.877500534057617,47
29.877500534057617,293
29.877500534057617,121
29.877500534057617,32
29.877500534057617,88
29.877500534057617,4
29.877500534057617,187
29.877500534057617,185
29.877500534057617,347
29.974649906158447,95
29.974649906158447,274
29.974649906158447,93
29.974649906158447,293
29.974649906158447,143
29.974649906158447,29
29.974649906158447,49
29.974649906158447,7
29.974649906158447,132
29.974649906158447,129
30.069607973098755,234
30.069607973098755,382
30.069607973098755,12
30.069607973098755,26
30.069607973098755,5
30.069607973098755,0
30.069607973098755,184
30.069607973098755,7
30.069607973098755,27
30.175952672958374,218
30.175952672958374,9
30.175952672958374,45
30.175952672958374,59
30.175952672958374,3
30.175952672958374,62
30.175952672958374,31
30.175952672958374,33
30.175952672958374,43
30.175952672958374,32
30.278127670288086,468
30.278127670288086,32
30.278127670288086,22
30.278127670288086,0
30.278127670288086,11
30.278127670288086,24
30.278127670288086,44
30.278127670288086,25
30.278127670288086,5
30.278127670288086,288
30.3737051486969,46
30.3737051486969,3
30.3737051486969,2
30.3737051486969,0
30.3737051486969,2
30.3737051486969,0
30.3737051486969,7
30.3737051486969,1
30.3737051486969,1
30.468200206756592,0
30.468200206756592,5
30.468200206756592,0
30.468200206756592,5
30.468200206756592,0
30.468200206756592,1
30.468200206756592,2
30.468200206756592,0
30.468200206756592,5
30.468200206756592,14
30.56307864189148,0
30.56307864189148,0
30.56307864189148,0
30.56307864189148,2
30.56307864189148,0
30.56307864189148,0
30.56307864189148,3
30.56307864189148,4
30.56307864189148,0
30.56307864189148,0
30.65859055519104,0
30.65859055519104,8
30.65859055519104,0
30.65859055519104,9
30.65859055519104,0
30.65859055519104,10
30.65859055519104,0
30.65859055519104,1
30.65859055519104,19
30.754236221313477,0
30.754236221313477,0
30.754236221313477,9
30.754236221313477,0
30.754236221313477,15
30.754236221313477,0
30.754236221313477,3
30.754236221313477,0
30.754236221313477,1
30.754236221313477,11
30.86616039276123,0
30.86616039276123,0
30.86616039276123,2
30.86616039276123,0
30.86616039276123,0
30.86616039276123,0
30.86616039276123,0
30.86616039276123,0
30.86616039276123,2
30.86616039276123,4
30.960878372192383,0
30.960878372192383,0
30.960878372192383,0
30.960878372192383,0
30.960878372192383,0
30.960878372192383,1
30.960878372192383,0
30.960878372192383,0
30.960878372192383,0
30.960878372192383,0
31.07339334487915,0
31.07339334487915,0
31.07339334487915,7
31.07339334487915,0
31.07339334487915,0
31.07339334487915,0
31.07339334487915,0
31.07339334487915,0
31.07339334487915,0
31.07339334487915,0
31.167768239974976,1
31.167768239974976,4
31.167768239974976,6
31.167768239974976,1
31.167768239974976,0
31.167768239974976,0
31.167768239974976,0
31.167768239974976,0
31.167768239974976,0
31.167768239974976,7
31.26302456855774,2
31.26302456855774,0
31.26302456855774,7
31.26302456855774,2
31.26302456855774,2
31.26302456855774,0
31.26302456855774,0
31.26302456855774,0
31.26302456855774,0
31.26302456855774,0
31.375608921051025,0
31.375608921051025,6
31.375608921051025,0
31.375608921051025,13
31.375608921051025,0
31.375608921051025,1
31.375608921051025,0
31.375608921051025,0
31.375608921051025,6
31.375608921051025,2
31.47160005569458,1
31.47160005569458,0
31.47160005569458,3
31.47160005569458,0
31.47160005569458,1
31.47160005569458,0
31.47160005569458,0
31.47160005569458,0
31.47160005569458,0
31.47160005569458,6
31.575860738754272,0
31.575860738754272,0
31.575860738754272,0
31.575860738754272,0
31.575860738754272,0
31.575860738754272,3
31.575860738754272,9
31.575860738754272,0
31.575860738754272,7
31.575860738754272,0
31.660796880722046,0
31.660796880722046,0
31.660796880722046,14
31.660796880722046,0
31.660796880722046,0
31.660796880722046,0
31.660796880722046,0
31.676733255386353,4
31.676733255386353,0
31.772615671157837,0
31.772615671157837,1
31.772615671157837,2
31.772615671157837,0
31.772615671157837,0
31.772615671157837,0
31.772615671157837,3
31.772615671157837,2
31.772615671157837,0
31.772615671157837,0
31.86771035194397,4
31.86771035194397,0
31.86771035194397,0
31.86771035194397,0
31.86771035194397,0
31.868326902389526,0
31.868326902389526,0
31.868326902389526,1
31.868326902389526,0
31.947427988052368,0
31.947427988052368,7
31.947427988052368,0
31.947427988052368,0
31.947427988052368,3
31.947427988052368,0
31.947427988052368,0
31.947427988052368,2
31.947427988052368,0
32.04244375228882,5
32.04244375228882,0
32.04244375228882,0
32.04244375228882,0
32.04244375228882,3
32.04244375228882,0
32.04244375228882,8
32.04244375228882,8
32.04244375228882,0
32.13866138458252,4
32.13866138458252,3
32.13866138458252,0
32.13866138458252,13
32.13866138458252,0
32.13866138458252,2
32.13866138458252,5
32.13866138458252,0
32.13866138458252,6
32.13866138458252,0
32.23354744911194,3
32.23354744911194,0
32.23354744911194,0
32.23354744911194,0
32.23354744911194,0
32.23354744911194,0
32.23354744911194,7
32.23354744911194,0
32.31283164024353,0
32.31283164024353,0
32.31283164024353,0
32.31283164024353,0
32.31283164024353,0
32.31283164024353,0
32.31283164024353,0
32.31283164024353,0
32.31283164024353,2
32.408870220184326,1
32.408870220184326,0
32.408870220184326,2
32.408870220184326,1
32.408870220184326,6
32.408870220184326,0
32.408870220184326,0
32.408870220184326,0
32.408870220184326,0
32.408870220184326,8
32.50471210479736,3
32.50471210479736,0
32.50471210479736,4
32.50471210479736,5
32.50471210479736,1
32.50471210479736,0
32.50471210479736,2
32.50471210479736,0
32.50471210479736,0
32.60007405281067,0
32.60007405281067,0
32.60007405281067,6
32.60007405281067,0
32.60007405281067,1
32.60007405281067,1
32.60007405281067,3
32.60007405281067,0
32.60007405281067,0
32.69516563415527,0
32.69516563415527,0
32.69516563415527,3
32.69516563415527,14
32.69516563415527,0
32.69516563415527,0
32.69516563415527,0
32.69516563415527,10
32.69516563415527,0
32.69516563415527,0
32.790996074676514,0
32.790996074676514,0
32.790996074676514,0
32.790996074676514,0
32.790996074676514,0
32.790996074676514,0
32.790996074676514,0
32.790996074676514,0
32.790996074676514,0
32.886481523513794,12
32.886481523513794,2
32.886481523513794,0
32.886481523513794,1
32.886481523513794,0
32.886481523513794,0
32.886481523513794,0
32.886481523513794,0
32.886481523513794,7
32.98187732696533,17
32.98187732696533,0
32.98187732696533,0
32.98187732696533,0
32.98187732696533,5
32.98187732696533,4
32.98187732696533,2
32.98187732696533,0
32.98187732696533,0
33.07744479179382,0
33.07744479179382,4
33.07744479179382,0
33.07744479179382,0
33.07744479179382,0
33.07744479179382,0
33.07744479179382,0
33.07744479179382,0
33.07744479179382,0
33.15628933906555,0
33.15628933906555,0
33.15628933906555,0
33.15628933906555,0
33.15628933906555,2
33.15628933906555,0
33.15628933906555,0
33.15628933906555,0
33.15628933906555,0
33.2515594959259,0
33.2515594959259,7
33.2515594959259,5
33.2515594959259,0
33.2515594959259,4
33.2515594959259,6
33.2515594959259,1
33.2515594959259,0
33.2515594959259,8
33.2515594959259,0
33.346839427948,6
33.346839427948,0
33.346839427948,0
33.346839427948,0
33.346839427948,0
33.346839427948,0
33.346839427948,0
33.346839427948,0
33.346839427948,6
33.44148254394531,0
33.44148254394531,4
33.44148254394531,0
33.44148254394531,0
33.44148254394531,2
33.44148254394531,0
33.44148254394531,0
33.44148254394531,2
33.44148254394531,0
33.53725290298462,12
33.53725290298462,4
33.53725290298462,0
33.53725290298462,0
33.53725290298462,5
33.53725290298462,0
33.53725290298462,0
33.53725290298462,0
33.53725290298462,0
33.63298153877258,5
33.63298153877258,1
33.63298153877258,6
33.63298153877258,0
33.63298153877258,1
33.63298153877258,9
33.63298153877258,0
33.63298153877258,0
33.63298153877258,19
33.63298153877258,0
33.729095220565796,0
33.729095220565796,0
33.729095220565796,3
33.729095220565796,0
33.729095220565796,0
33.729095220565796,0
33.729095220565796,9
33.729095220565796,10
33.729095220565796,0
33.824241161346436,7
33.824241161346436,0
33.824241161346436,0
33.824241161346436,0
33.824241161346436,0
33.824241161346436,0
33.824241161346436,0
33.824241161346436,0
33.824241161346436,11
33.919438123703,0
33.919438123703,16
33.919438123703,0
33.919438123703,0
33.919438123703,3
33.919438123703,0
33.919438123703,0
33.919438123703,9
33.919438123703,0
33.919438123703,0
34.014075756073,13
34.014075756073,11
34.014075756073,4
34.014075756073,4
34.014075756073,0
34.014075756073,0
34.014075756073,0
34.014075756073,0
34.014075756073,0
34.10976266860962,4
34.10976266860962,0
34.10976266860962,1
34.10976266860962,1
34.10976266860962,0
34.10976266860962,0
34.10976266860962,0
34.10976266860962,16
34.10976266860962,0
34.189677715301514,3
34.189677715301514,0
34.189677715301514,0
34.189677715301514,7
34.189677715301514,0
34.189677715301514,0
34.189677715301514,0
34.189677715301514,7
34.189677715301514,2
34.285268783569336,0
34.285268783569336,6
34.285268783569336,0
34.285268783569336,1
34.285268783569336,0
34.285268783569336,0
34.285268783569336,2
34.285268783569336,0
34.285268783569336,0
34.38107085227966,7
34.38107085227966,0
34.38107085227966,0
34.38107085227966,4
34.38107085227966,4
34.38107085227966,0
34.38107085227966,2
34.38107085227966,0
34.38107085227966,0
34.38107085227966,0
34.487377643585205,0
34.487377643585205,0
34.487377643585205,0
34.487377643585205,0
34.487377643585205,1
34.487377643585205,0
34.487377643585205,2
34.487377643585205,0
34.487377643585205,0
34.58290886878967,0
34.58290886878967,0
34.58290886878967,5
34.58290886878967,0
34.58290886878967,0
34.58290886878967,1
34.58290886878967,0
34.58290886878967,0
34.58290886878967,0
34.67773771286011,0
34.67773771286011,2
34.67773771286011,3
34.67773771286011,0
34.67773771286011,5
34.67773771286011,2
34.67773771286011,0
34.67773771286011,3
34.682873249053955,0
34.682873249053955,0
34.76257252693176,0
34.778292417526245,0
34.778292417526245,0
34.778292417526245,4
34.778292417526245,0
34.778292417526245,0
34.778292417526245,4
34.778292417526245,0
34.778292417526245,0
34.85813498497009,0
34.85813498497009,0
34.85813498497009,0
34.85813498497009,0
34.85813498497009,0
34.85813498497009,0
34.85813498497009,0
34.85813498497009,0
34.85813498497009,1
34.85813498497009,0
34.953428983688354,0
34.953428983688354,0
34.953428983688354,0
34.953428983688354,8
34.953428983688354,3
34.953428983688354,0
34.953428983688354,7
34.953428983688354,0
34.953428983688354,0
35.04846668243408,0
35.04846668243408,0
35.04846668243408,3
35.04846668243408,6
35.04846668243408,0
35.04846668243408,3
35.04846668243408,3
35.04846668243408,0
35.04846668243408,0
35.1438467502594,2
35.1438467502594,1
35.1438467502594,0
35.1438467502594,2
35.1438467502594,0
35.1438467502594,0
35.1438467502594,0
35.1438467502594,0
35.1438467502594,1
35.24020957946777,0
35.24020957946777,0
35.24020957946777,0
35.24020957946777,4
35.24020957946777,0
35.24020957946777,0
35.24020957946777,1
35.24020957946777,6
35.24020957946777,0
35.33498954772949,10
35.33498954772949,0
35.33498954772949,0
35.33498954772949,0
35.33498954772949,0
35.33498954772949,0
35.33498954772949,0
35.33498954772949,1
35.33498954772949,12
35.33498954772949,0
35.430415868759155,6
35.430415868759155,0
35.430415868759155,0
35.430415868759155,0
35.430415868759155,0
35.430415868759155,13
35.430415868759155,0
35.430415868759155,0
35.430415868759155,0
35.52710843086243,0
35.52710843086243,0
35.52710843086243,6
35.52710843086243,1
35.52710843086243,3
35.52710843086243,7
35.52710843086243,0
35.52710843086243,0
35.52710843086243,0
35.621453046798706,0
35.621453046798706,0
35.621453046798706,0
35.621453046798706,0
35.621453046798706,0
35.621453046798706,3
35.621453046798706,0
35.622230768203735,0
35.622230768203735,4
35.70076060295105,2
35.7169349193573,0
35.7169349193573,0
35.7169349193573,3
35.717297315597534,0
35.717297315597534,0
35.717297315597534,5
35.717297315597534,0
35.717297315597534,0
35.717297315597534,2
35.796547412872314,0
35.796547412872314,0
35.796547412872314,0
35.796547412872314,8
35.796547412872314,5
35.796547412872314,0
35.796547412872314,0
35.796547412872314,2
35.796547412872314,0
35.907272815704346,0
35.907272815704346,0
35.907272815704346,0
35.907272815704346,0
35.907272815704346,0
35.907272815704346,0
35.907272815704346,0
35.907272815704346,6
35.907272815704346,0
35.986613273620605,0
35.986613273620605,6
35.986613273620605,0
35.986613273620605,0
35.986613273620605,0
35.986613273620605,6
35.986613273620605,0
35.986613273620605,0
35.986613273620605,0
35.986613273620605,9
36.08193397521973,0
36.08193397521973,0
36.08193397521973,0
36.08193397521973,0
36.08193397521973,0
36.08193397521973,6
36.08193397521973,1
36.08193397521973,6
36.08193397521973,0
36.18806171417236,5
36.18806171417236,1
36.18806171417236,0
36.18806171417236,0
36.18806171417236,1
36.18806171417236,2
36.18806171417236,0
36.18806171417236,2
36.18806171417236,3
36.27310109138489,0
36.27310109138489,7
36.27310109138489,5
36.27310109138489,0
36.27310109138489,1
36.27310109138489,0
36.27310109138489,0
36.27310109138489,0
36.27310109138489,0
36.368741273880005,0
36.368741273880005,13
36.368741273880005,0
36.368741273880005,0
36.368741273880005,0
36.368741273880005,0
36.368741273880005,0
36.368741273880005,0
36.368741273880005,0
36.37901020050049,0
36.46378564834595,0
36.46378564834595,0
36.46378564834595,6
36.46378564834595,0
36.46378564834595,0
36.46378564834595,3
36.46378564834595,10
36.46378564834595,0
36.46378564834595,0
36.559683084487915,0
36.559683084487915,0
36.559683084487915,0
36.559683084487915,1
36.559683084487915,4
36.559683084487915,9
36.559683084487915,1
36.559683084487915,0
36.559683084487915,6
36.655771255493164,0
36.655771255493164,0
36.655771255493164,2
36.655771255493164,9
36.655771255493164,8
36.655771255493164,0
36.655771255493164,0
36.655771255493164,0
36.655771255493164,3
36.75142812728882,0
36.75142812728882,0
36.75142812728882,4
36.75142812728882,0
36.75142812728882,0
36.75142812728882,0
36.75142812728882,1
36.75142812728882,0
36.75142812728882,0
36.75142812728882,1
36.84727454185486,3
36.84727454185486,0
36.84727454185486,0
36.84727454185486,9
36.84727454185486,4
36.84727454185486,0
36.84727454185486,0
36.84727454185486,1
36.84727454185486,2
36.94317293167114,0
36.94317293167114,4
36.94317293167114,0
36.94317293167114,4
36.94317293167114,0
36.94317293167114,3
36.94317293167114,12
36.94317293167114,3
36.94317293167114,0
37.038368463516235,0
37.038368463516235,1
37.038368463516235,3
37.038368463516235,0
37.038368463516235,12
37.038368463516235,17
37.038368463516235,1
37.038368463516235,13
37.038368463516235,9
37.038368463516235,0
37.12894058227539,15
37.12894058227539,5
37.12894058227539,29
37.12894058227539,15
37.12894058227539,3
37.12894058227539,24
37.12894058227539,54
37.12894058227539,27
37.12894058227539,98
37.22533059120178,5
37.22533059120178,2
37.22533059120178,0
37.22533059120178,0
37.22533059120178,61
37.22533059120178,165
37.22533059120178,50
37.22533059120178,28
37.22533059120178,40
37.31014132499695,11
37.31014132499695,2
37.31014132499695,24
37.31014132499695,53
37.31014132499695,52
37.31014132499695,8
37.31014132499695,244
37.31014132499695,147
37.31014132499695,0
37.40521860122681,189
37.40521860122681,14
37.40521860122681,19
37.40521860122681,16
37.40521860122681,17
37.40521860122681,7
37.40521860122681,38
37.40521860122681,272
37.40521860122681,192
37.40521860122681,0
37.516881465911865,154
37.516881465911865,7
37.516881465911865,0
37.516881465911865,137
37.516881465911865,64
37.516881465911865,61
37.516881465911865,51
37.516881465911865,29
37.516881465911865,2
37.516881465911865,42
37.612199783325195,17
37.612199783325195,11
37.612199783325195,9
37.612199783325195,29
37.612199783325195,2
37.612199783325195,231
37.612199783325195,45
37.612199783325195,52
37.612199783325195,23
37.612199783325195,108
37.72674369812012,29
37.72674369812012,34
37.72674369812012,127
37.72674369812012,175
37.72674369812012,46
37.72674369812012,11
37.72674369812012,133
37.72674369812012,139
37.72674369812012,6
37.72674369812012,55
37.82969403266907,43
37.82969403266907,69
37.82969403266907,0
37.82969403266907,0
37.82969403266907,40
37.82969403266907,109
37.82969403266907,122
37.82969403266907,151
37.82969403266907,171
37.82969403266907,257
37.93153786659241,2
37.93153786659241,73
37.93153786659241,0
37.93153786659241,191
37.93153786659241,83
37.93153786659241,25
37.93153786659241,24
37.93153786659241,50
37.93153786659241,172
37.93153786659241,104
38.027132749557495,124
38.027132749557495,35
38.027132749557495,194
38.027132749557495,4
38.027132749557495,83
38.027132749557495,163
38.027132749557495,114
38.027132749557495,55
38.027132749557495,39
38.027132749557495,46
38.13374161720276,42
38.13374161720276,188
38.13374161720276,163
38.13374161720276,251
38.137908935546875,104
38.137908935546875,32
38.137908935546875,130
38.137908935546875,107
38.137908935546875,71
38.137908935546875,60
38.23357057571411,173
38.23357057571411,116
38.23357057571411,175
38.23357057571411,3
38.23357057571411,87
38.23357057571411,107
38.23357057571411,170
38.23357057571411,189
38.23357057571411,150
38.23357057571411,157
38.32947111129761,257
38.32947111129761,29
38.32947111129761,13
38.32947111129761,7
38.32947111129761,33
38.32947111129761,14
38.32947111129761,295
38.32947111129761,84
38.32947111129761,30
38.32947111129761,156
38.435882329940796,188
38.435882329940796,46
38.435882329940796,1
38.435882329940796,136
38.435882329940796,85
38.435882329940796,20
38.435882329940796,13
38.435882329940796,140
38.435882329940796,240
38.53236484527588,256
38.53236484527588,461
38.53236484527588,49
38.53236484527588,51
38.53236484527588,4
38.53236484527588,113
38.53236484527588,27
38.53236484527588,39
38.53236484527588,18
38.53236484527588,46
38.61613869667053,34
38.61613869667053,235
38.61613869667053,72
38.61613869667053,5
38.61613869667053,136
38.61613869667053,49
38.61613869667053,189
38.61613869667053,129
38.61613869667053,208
38.71091055870056,37
38.71091055870056,38
38.71091055870056,53
38.71091055870056,23
38.71091055870056,47
38.71091055870056,77
38.71091055870056,187
38.71091055870056,75
38.71091055870056,17
38.8066291809082,69
38.8066291809082,188
38.8066291809082,50
38.8066291809082,147
38.8066291809082,70
38.8066291809082,99
38.8066291809082,33
38.8066291809082,48
38.8066291809082,886
38.90218162536621,47
38.90218162536621,475
38.90218162536621,45
38.90218162536621,131
38.90218162536621,3
38.90218162536621,79
38.90218162536621,78
38.90218162536621,104
38.90218162536621,38
38.99789881706238,536
38.99789881706238,146
38.99789881706238,134
38.99789881706238,25
38.99789881706238,200
38.99789881706238,67
38.99789881706238,302
38.99789881706238,25
38.99789881706238,146
38.99789881706238,35
39.109628677368164,770
39.109628677368164,57
39.109628677368164,47
39.109628677368164,46
39.109628677368164,57
39.109628677368164,317
39.109628677368164,118
39.109628677368164,39
39.109628677368164,39
39.109628677368164,152
39.20485043525696,200
39.20485043525696,187
39.20485043525696,48
39.20485043525696,9
39.20485043525696,201
39.20485043525696,66
39.20485043525696,61
39.20485043525696,25
39.20485043525696,251
39.20485043525696,13
39.29990768432617,66
39.29990768432617,72
39.29990768432617,114
39.29990768432617,181
39.29990768432617,20
39.29990768432617,146
39.29990768432617,98
39.29990768432617,24
39.29990768432617,91
39.29990768432617,2
39.39564609527588,202
39.39564609527588,14
39.39564609527588,149
39.39564609527588,34
39.39564609527588,27
39.39564609527588,69
39.39564609527588,82
39.39564609527588,3
39.39564609527588,28
39.491501331329346,131
39.491501331329346,22
39.491501331329346,84
39.491501331329346,119
39.491501331329346,6
39.491501331329346,0
39.491501331329346,8
39.491501331329346,239
39.491501331329346,64
39.587165117263794,186
39.587165117263794,3
39.587165117263794,41
39.587165117263794,24
39.587165117263794,48
39.587165117263794,31
39.587165117263794,61
39.587165117263794,24
39.587165117263794,1
39.587165117263794,285
39.68272042274475,81
39.68272042274475,75
39.68272042274475,107
39.68272042274475,46
39.68272042274475,171
39.68272042274475,229
39.68272042274475,5
39.68272042274475,59
39.68272042274475,22
39.77869462966919,146
39.77869462966919,141
39.77869462966919,21
39.77869462966919,61
39.788811922073364,43
39.788811922073364,50
39.788811922073364,125
39.788811922073364,61
39.788811922073364,67
39.788811922073364,11
39.876102924346924,46
39.876102924346924,14
39.876102924346924,128
39.876102924346924,167
39.876102924346924,141
39.876102924346924,33
39.876102924346924,386
39.876102924346924,2
39.97974634170532,105
39.97974634170532,113
39.97974634170532,1
39.97974634170532,84
39.97974634170532,131
39.97974634170532,179
39.97974634170532,24
39.97974634170532,8
39.97974634170532,26
39.97974634170532,7
40.06394076347351,97
40.06394076347351,41
40.06394076347351,204
40.06394076347351,79
40.06394076347351,53
40.06394076347351,40
40.06394076347351,118
40.06394076347351,21
40.06394076347351,251
40.06394076347351,20
40.1758451461792,16
40.1758451461792,179
40.1758451461792,71
40.1758451461792,226
40.1758451461792,67
40.1758451461792,20
40.1758451461792,38
40.1758451461792,0
40.1758451461792,0
40.1758451461792,5
40.271485567092896,0
40.271485567092896,5
40.271485567092896,0
40.271485567092896,24
40.271485567092896,14
40.271485567092896,108
40.271485567092896,22
40.271485567092896,11
40.271485567092896,0
40.36787986755371,1
40.36787986755371,3
40.36787986755371,2
40.36787986755371,0
40.36787986755371,2
40.36787986755371,0
40.36787986755371,13
40.36787986755371,1
40.36787986755371,0
40.36787986755371,20
40.46129131317139,5
40.46129131317139,8
40.46129131317139,0
40.46129131317139,1
40.46129131317139,0
40.46129131317139,0
40.46129131317139,0
40.46129131317139,0
40.46129131317139,0
40.55708885192871,2
40.55708885192871,0
40.55708885192871,0
40.55708885192871,0
40.55708885192871,0
40.55708885192871,2
40.55708885192871,0
40.55708885192871,1
40.55708885192871,0
40.55708885192871,0
40.652793169021606,0
40.652793169021606,0
40.652793169021606,0
40.652793169021606,0
40.652793169021606,0
40.652793169021606,0
40.652793169021606,2
40.652793169021606,0
40.652793169021606,1
40.748138427734375,0
40.748138427734375,0
40.748138427734375,0
40.748138427734375,0
40.748138427734375,0
40.748138427734375,0
40.748138427734375,0
40.748138427734375,1
40.748138427734375,0
40.84381127357483,0
40.84381127357483,0
40.84381127357483,0
40.84381127357483,1
40.84381127357483,0
40.84381127357483,0
40.84381127357483,2
40.84381127357483,0
40.84381127357483,0
40.84381127357483,0
40.93905162811279,0
40.93905162811279,0
40.93905162811279,0
40.93905162811279,0
40.93905162811279,0
40.93905162811279,0
40.93905162811279,2
40.93905162811279,0
40.93905162811279,0
41.050140142440796,0
41.050140142440796,0
41.050140142440796,1
41.050140142440796,0
41.050140142440796,0
41.050140142440796,2
41.050140142440796,8
41.050140142440796,0
41.050140142440796,0
41.050140142440796,0
41.14533352851868,0
41.14533352851868,0
41.14533352851868,0
41.14533352851868,0
41.14533352851868,0
41.14533352851868,0
41.14533352851868,0
41.14533352851868,1
41.14533352851868,10
41.14533352851868,0
41.241230487823486,7
41.241230487823486,0
41.241230487823486,0
41.241230487823486,0
41.241230487823486,0
41.241230487823486,1
41.241230487823486,2
41.241230487823486,0
41.241230487823486,0
41.241230487823486,0
41.33638310432434,4
41.33638310432434,0
41.33638310432434,0
41.33638310432434,0
41.33638310432434,0
41.33638310432434,0
41.33638310432434,0
41.33638310432434,0
41.33638310432434,0
41.33638310432434,0
41.43171739578247,0
41.43171739578247,0
41.43171739578247,0
41.43171739578247,0
41.43171739578247,0
41.43171739578247,0
41.43171739578247,1
41.43171739578247,0
41.43171739578247,0
41.53921365737915,0
41.53921365737915,3
41.53921365737915,0
41.53921365737915,0
41.53921365737915,0
41.53921365737915,11
41.53921365737915,0
41.53921365737915,1
41.53921365737915,1
41.53921365737915,0
41.63447403907776,0
41.63447403907776,0
41.63447403907776,0
41.63447403907776,0
41.63447403907776,0
41.63447403907776,0
41.63447403907776,0
41.63447403907776,2
41.63447403907776,0
41.72976064682007,1
41.72976064682007,0
41.72976064682007,0
41.72976064682007,0
41.72976064682007,2
41.72976064682007,0
41.72976064682007,0
41.72976064682007,4
41.72976064682007,0
41.82555627822876,0
41.82555627822876,0
41.82555627822876,0
41.82555627822876,0
41.82555627822876,0
41.82555627822876,0
41.82555627822876,0
41.82555627822876,1
41.82555627822876,0
41.82555627822876,0
41.926692962646484,3
41.926692962646484,0
41.926692962646484,6
41.926692962646484,0
41.926692962646484,0
41.926692962646484,2
41.926692962646484,2
41.926692962646484,0
41.926692962646484,0
41.926692962646484,0
42.022130727767944,6
42.022130727767944,0
42.022130727767944,2
42.022130727767944,0
42.022130727767944,0
42.022130727767944,0
42.022130727767944,6
42.022130727767944,11
42.022130727767944,0
42.117483139038086,7
42.117483139038086,0
42.117483139038086,0
42.117483139038086,0
42.117483139038086,0
42.117483139038086,0
42.117483139038086,2
42.117483139038086,7
42.117483139038086,0
42.117483139038086,3
42.21250534057617,0
42.21250534057617,4
42.21250534057617,0
42.21250534057617,1
42.21250534057617,0
42.21250534057617,1
42.21250534057617,0
42.21250534057617,0
42.21250534057617,3
42.307833194732666,2
42.307833194732666,6
42.307833194732666,4
42.307833194732666,0
42.307833194732666,0
42.307833194732666,0
42.307833194732666,0
42.307833194732666,0
42.307833194732666,1
42.307833194732666,0
42.403573751449585,0
42.403573751449585,0
42.403573751449585,0
42.403573751449585,0
42.403573751449585,3
42.403573751449585,0
42.403573751449585,6
42.403573751449585,0
42.403573751449585,5
42.499245166778564,0
42.499245166778564,0
42.499245166778564,0
42.499245166778564,0
42.499245166778564,7
42.499245166778564,0
42.499245166778564,0
42.499245166778564,0
42.499245166778564,0
42.59506440162659,0
42.59506440162659,0
42.59506440162659,0
42.59506440162659,0
42.59506440162659,0
42.59506440162659,0
42.59506440162659,0
42.59506440162659,0
42.59506440162659,0
42.59506440162659,1
42.6899950504303,0
42.6899950504303,0
42.6899950504303,1
42.6899950504303,0
42.6899950504303,0
42.6899950504303,1
42.6899950504303,0
42.6899950504303,2
42.6899950504303,0
42.78506278991699,0
42.78506278991699,0
42.78506278991699,0
42.78506278991699,4
42.78506278991699,16
42.78506278991699,0
42.78506278991699,0
42.78506278991699,0
42.78506278991699,1
42.88077425956726,0
42.88077425956726,1
42.88077425956726,2
42.88077425956726,0
42.88077425956726,0
42.88077425956726,0
42.88077425956726,0
42.88077425956726,0
42.88077425956726,2
42.88077425956726,0
42.97623634338379,1
42.97623634338379,0
42.97623634338379,1
42.97623634338379,0
42.97623634338379,0
42.97623634338379,0
42.97623634338379,0
42.97623634338379,5
42.97623634338379,0
43.072169065475464,0
43.072169065475464,0
43.072169065475464,3
43.072169065475464,0
43.072169065475464,2
43.072169065475464,1
43.072169065475464,0
43.072169065475464,0
43.072169065475464,8
43.16682267189026,4
43.16682267189026,9
43.16682267189026,11
43.16682267189026,2
43.16682267189026,9
43.16682267189026,0
43.16682267189026,6
43.16682267189026,5
43.16682267189026,3
43.16682267189026,0
43.24651598930359,21
43.24651598930359,2
43.24651598930359,1
43.24651598930359,1
43.24651598930359,6
43.24651598930359,1
43.24651598930359,13
43.24651598930359,0
43.26253581047058,0
43.34245681762695,0
43.34245681762695,0
43.34245681762695,0
43.34245681762695,0
43.34245681762695,0
43.34245681762695,5
43.34245681762695,0
43.358442306518555,2
43.358442306518555,0
43.43842077255249,0
43.43842077255249,0
43.43842077255249,0
43.43842077255249,0
43.43842077255249,3
43.43842077255249,3
43.43842077255249,8
43.43842077255249,0
43.43842077255249,0
43.5340518951416,0
43.5340518951416,0
43.5340518951416,0
43.5340518951416,0
43.5340518951416,0
43.5340518951416,4
43.5340518951416,0
43.5340518951416,0
43.5340518951416,0
43.5340518951416,11
43.629921436309814,0
43.629921436309814,0
43.629921436309814,0
43.629921436309814,0
43.629921436309814,5
43.629921436309814,0
43.629921436309814,0
43.629921436309814,1
43.629921436309814,0
43.725502490997314,0
43.725502490997314,3
43.725502490997314,10
43.725502490997314,0
43.725502490997314,7
43.725502490997314,0
43.725502490997314,0
43.725502490997314,0
43.725502490997314,0
43.820929527282715,0
43.820929527282715,0
43.820929527282715,4
43.820929527282715,0
43.820929527282715,0
43.820929527282715,4
43.820929527282715,0
43.820929527282715,0
43.820929527282715,0
43.820929527282715,0
43.9155216217041,0
43.9155216217041,0
43.9155216217041,0
43.9155216217041,7
43.9155216217041,0
43.9155216217041,0
43.9155216217041,0
43.9155216217041,0
43.9155216217041,0
44.01038932800293,0
44.01038932800293,0
44.01038932800293,0
44.01038932800293,0
44.01038932800293,0
44.01038932800293,4
44.01038932800293,2
44.01038932800293,13
44.01038932800293,0
44.1056969165802,0
44.1056969165802,0
44.1056969165802,0
44.1056969165802,2
44.1056969165802,0
44.1056969165802,0
44.1056969165802,0
44.1056969165802,4
44.1056969165802,1
44.1056969165802,7
44.20075225830078,0
44.20075225830078,11
44.20075225830078,1
44.20075225830078,0
44.20075225830078,0
44.20075225830078,0
44.20075225830078,0
44.20075225830078,1
44.20075225830078,0
44.29553771018982,0
44.29553771018982,0
44.29553771018982,0
44.29553771018982,0
44.29553771018982,3
44.29553771018982,4
44.29553771018982,2
44.29553771018982,0
44.29553771018982,0
44.39087891578674,0
44.39087891578674,1
44.39087891578674,9
44.39087891578674,0
44.39087891578674,0
44.39087891578674,0
44.39087891578674,0
44.39087891578674,0
44.39087891578674,9
44.48624086380005,0
44.48624086380005,0
44.48624086380005,0
44.48624086380005,5
44.48624086380005,1
44.48624086380005,3
44.48624086380005,3
44.48624086380005,0
44.48624086380005,0
44.48624086380005,0
44.58148193359375,0
44.58148193359375,1
44.58148193359375,2
44.58148193359375,0
44.58148193359375,0
44.58148193359375,2
44.58148193359375,2
44.58148193359375,2
44.58148193359375,3
44.67746615409851,0
44.67746615409851,1
44.67746615409851,0
44.67746615409851,2
44.67746615409851,0
44.67746615409851,0
44.67746615409851,5
44.67746615409851,9
44.67746615409851,0
44.77332592010498,0
44.77332592010498,3
44.77332592010498,0
44.77332592010498,3
44.77332592010498,0
44.77332592010498,7
44.77332592010498,0
44.77332592010498,2
44.77332592010498,0
44.77332592010498,0
44.85222911834717,0
44.85222911834717,0
44.85222911834717,0
44.85222911834717,0
44.85222911834717,4
44.85222911834717,0
44.85222911834717,1
44.85222911834717,0
44.86842322349548,0
44.947837591171265,2
44.947837591171265,0
44.947837591171265,0
44.947837591171265,1
44.947837591171265,0
44.947837591171265,17
44.947837591171265,0
44.947837591171265,0
44.947837591171265,0
45.055476903915405,0
45.055476903915405,3
45.055476903915405,0
45.055476903915405,0
45.055476903915405,0
45.055476903915405,0
45.055476903915405,0
45.055476903915405,6
45.055476903915405,0
45.139623403549194,5
45.139623403549194,0
45.139623403549194,0
45.139623403549194,5
45.139623403549194,0
45.139623403549194,7
45.139623403549194,0
45.139623403549194,0
45.139623403549194,0
45.139623403549194,0
45.23569321632385,0
45.23569321632385,1
45.23569321632385,0
45.23569321632385,1
45.23569321632385,1
45.23569321632385,0
45.23569321632385,0
45.23569321632385,3
45.23569321632385,0
45.331011056900024,8
45.331011056900024,10
45.331011056900024,0
45.331011056900024,0
45.331011056900024,0
45.331011056900024,0
45.331011056900024,0
45.331011056900024,0
45.331011056900024,0
45.42792797088623,2
45.42792797088623,0
45.42792797088623,0
45.42792797088623,8
45.42792797088623,3
45.42792797088623,0
45.42792797088623,0
45.42792797088623,0
45.42792797088623,1
45.52283501625061,0
45.52283501625061,0
45.52283501625061,2
45.52283501625061,1
45.52283501625061,7
45.52283501625061,0
45.52283501625061,13
45.52283501625061,0
45.52283501625061,0
45.61934447288513,0
45.61934447288513,2
45.61934447288513,0
45.61934447288513,0
45.61934447288513,1
45.61934447288513,7
45.61934447288513,2
45.61934447288513,5
45.61934447288513,0
45.61934447288513,0
45.712587118148804,0
45.712587118148804,0
45.712587118148804,4
45.712587118148804,0
45.712587118148804,0
45.712587118148804,0
45.712587118148804,12
45.712587118148804,0
45.712587118148804,1
45.80869102478027,0
45.80869102478027,0
45.80869102478027,0
45.80869102478027,1
45.80869102478027,0
45.80869102478027,0
45.80869102478027,0
45.80869102478027,2
45.80869102478027,0
45.80869102478027,0
45.903669357299805,0
45.903669357299805,0
45.903669357299805,0
45.903669357299805,9
45.903669357299805,0
45.903669357299805,20
45.903669357299805,0
45.903669357299805,0
45.903669357299805,0
45.999141454696655,0
45.999141454696655,0
45.999141454696655,2
45.999141454696655,0
45.999141454696655,0
45.999141454696655,0
45.999141454696655,3
45.999141454696655,1
45.999141454696655,0
46.09173107147217,0
46.09173107147217,0
46.09173107147217,2
46.09173107147217,0
46.09173107147217,0
46.09173107147217,1
46.09173107147217,1
46.09173107147217,3
46.09173107147217,2
46.18502879142761,0
46.18502879142761,2
46.18502879142761,0
46.18502879142761,0
46.18502879142761,0
46.18502879142761,0
46.18502879142761,0
46.18502879142761,1
46.18502879142761,7
46.28020715713501,0
46.28020715713501,0
46.28020715713501,1
46.28020715713501,0
46.28020715713501,0
46.28020715713501,0
46.28020715713501,0
46.28020715713501,0
46.28020715713501,0
46.28020715713501,4
46.3641893863678,6
46.3641893863678,0
46.3641893863678,2
46.3641893863678,3
46.3641893863678,8
46.3641893863678,0
46.3641893863678,0
46.3641893863678,0
46.3641893863678,12
46.45925331115723,3
46.45925331115723,0
46.45925331115723,0
46.45925331115723,15
46.45925331115723,60
46.45925331115723,31
46.45925331115723,103
46.45925331115723,47
46.45925331115723,26
46.45925331115723,0
46.554792165756226,3
46.554792165756226,2
46.554792165756226,7
46.554792165756226,0
46.554792165756226,47
46.554792165756226,44
46.554792165756226,7
46.554792165756226,72
46.554792165756226,107
46.650490045547485,0
46.650490045547485,7
46.650490045547485,2
46.650490045547485,31
46.650490045547485,29
46.650490045547485,25
46.650490045547485,52
46.650490045547485,63
46.650490045547485,62
46.74600315093994,45
46.74600315093994,6
46.74600315093994,0
46.74600315093994,37
46.74600315093994,12
46.74600315093994,40
46.74600315093994,34
46.74600315093994,131
46.74600315093994,116
46.84165978431702,9
46.84165978431702,313
46.84165978431702,50
46.84165978431702,288
46.84165978431702,173
46.84165978431702,21
46.84165978431702,171
46.84165978431702,62
46.84165978431702,66
46.937830686569214,127
46.937830686569214,112
46.937830686569214,44
46.937830686569214,104
46.937830686569214,285
46.937830686569214,65
46.937830686569214,104
46.937830686569214,36
46.937830686569214,200
46.937830686569214,126
47.03362464904785,199
47.03362464904785,108
47.03362464904785,107
47.03362464904785,13
47.03362464904785,71
47.03362464904785,73
47.03362464904785,101
47.03362464904785,80
47.03362464904785,37
47.139915466308594,283
47.139915466308594,32
47.139915466308594,226
47.139915466308594,224
47.139915466308594,326
47.139915466308594,22
47.139915466308594,106
47.139915466308594,99
47.139915466308594,239
47.139915466308594,69
47.240159034729004,40
47.240159034729004,154
47.240159034729004,130
47.240159034729004,147
47.240159034729004,6
47.240159034729004,109
47.240159034729004,133
47.240159034729004,9
47.240159034729004,67
47.240159034729004,372
47.335633277893066,81
47.335633277893066,4
47.335633277893066,49
47.335633277893066,237
47.335633277893066,103
47.335633277893066,156
47.335633277893066,95
47.335633277893066,62
47.335633277893066,13
47.335633277893066,31
47.43120193481445,15
47.43120193481445,65
47.43120193481445,23
47.43120193481445,117
47.43120193481445,226
47.43120193481445,45
47.43120193481445,290
47.43120193481445,39
47.43120193481445,33
47.542903661727905,137
47.542903661727905,51
47.542903661727905,84
47.542903661727905,217
47.542903661727905,89
47.542903661727905,40
47.542903661727905,287
47.542903661727905,322
47.542903661727905,29
47.542903661727905,7
47.637988805770874,187
47.637988805770874,108
47.637988805770874,2
47.637988805770874,195
47.637988805770874,30
47.637988805770874,116
47.637988805770874,40
47.637988805770874,169
47.637988805770874,32
47.637988805770874,11
47.74039006233215,69
47.74039006233215,33
47.74039006233215,114
47.74039006233215,54
47.74039006233215,1
47.74039006233215,167
47.74039006233215,12
47.74039006233215,118
47.74039006233215,165
47.83942890167236,126
47.83942890167236,76
47.83942890167236,202
47.83942890167236,111
47.83942890167236,39
47.83942890167236,16
47.83942890167236,88
47.83942890167236,0
47.83942890167236,77
47.83942890167236,273
47.93983840942383,263
47.93983840942383,116
47.93983840942383,32
47.93983840942383,75
47.93983840942383,181
47.93983840942383,157
47.93983840942383,20
47.93983840942383,292
47.93983840942383,65
47.93983840942383,130
48.03529357910156,18
48.03529357910156,377
48.03529357910156,91
48.03529357910156,0
48.03529357910156,107
48.03529357910156,32
48.03529357910156,105
48.03529357910156,306
48.03529357910156,39
48.03529357910156,89
48.13084697723389,57
48.13084697723389,153
48.13084697723389,139
48.13084697723389,55
48.13084697723389,8
48.13084697723389,66
48.13084697723389,357
48.13084697723389,78
48.13084697723389,28
48.2266960144043,116
48.2266960144043,44
48.2266960144043,17
48.2266960144043,213
48.2266960144043,284
48.2266960144043,86
48.2266960144043,80
48.2266960144043,122
48.2266960144043,155
48.2266960144043,64
48.3221435546875,155
48.3221435546875,108
48.3221435546875,103
48.3221435546875,69
48.3221435546875,269
48.3221435546875,206
48.3221435546875,97
48.3221435546875,31
48.3221435546875,244
48.421388387680054,123
48.421388387680054,180
48.421388387680054,11
48.421388387680054,73
48.421388387680054,94
48.421388387680054,173
48.421388387680054,329
48.421388387680054,22
48.421388387680054,350
48.51288437843323,24
48.51288437843323,71
48.51288437843323,470
48.51288437843323,94
48.51288437843323,181
48.51288437843323,0
48.51288437843323,67
48.51288437843323,43
48.51288437843323,164
48.60826516151428,98
48.60826516151428,84
48.60826516151428,371
48.60826516151428,63
48.60826516151428,0
48.60826516151428,137
48.60826516151428,109
48.60826516151428,22
48.60826516151428,0
48.60826516151428,219
48.72013711929321,377
48.72013711929321,164
48.72013711929321,160
48.72013711929321,117
48.72013711929321,202
48.72013711929321,77
48.72013711929321,3
48.72013711929321,88
48.72013711929321,19
48.72013711929321,68
48.82582426071167,359
48.82582426071167,120
48.82582426071167,0
48.82582426071167,315
48.82582426071167,185
48.82582426071167,246
48.82582426071167,85
48.82582426071167,14
48.82582426071167,123
48.82582426071167,112
48.92726469039917,293
48.92726469039917,64
48.92726469039917,145
48.92726469039917,177
48.92726469039917,18
48.92726469039917,34
48.92726469039917,6
48.92726469039917,171
48.92726469039917,30
48.92726469039917,113
48.92726469039917,118
49.02233099937439,28
49.02233099937439,171
49.02233099937439,165
49.02233099937439,205
49.02233099937439,6
49.02233099937439,43
49.02233099937439,38
49.02233099937439,43
49.02233099937439,1
49.02233099937439,82
49.11819624900818,119
49.11819624900818,24
49.11819624900818,53
49.11819624900818,113
49.11819624900818,7
49.11819624900818,55
49.11819624900818,55
49.11819624900818,131
49.11819624900818,125
49.213664531707764,89
49.213664531707764,72
49.213664531707764,106
49.213664531707764,32
49.213664531707764,189
49.213664531707764,101
49.213664531707764,2
49.213664531707764,262
49.213664531707764,6
49.30886697769165,123
49.30886697769165,70
49.30886697769165,60
49.30886697769165,51
49.30886697769165,6
49.30886697769165,10
49.30886697769165,89
49.30886697769165,226
49.30886697769165,140
49.404640913009644,52
49.404640913009644,7
49.404640913009644,106
49.404640913009644,131
49.404640913009644,57
49.404640913009644,74
49.404640913009644,13
49.404640913009644,105
49.404640913009644,63
49.50010967254639,113
49.50010967254639,171
49.50010967254639,38
49.50010967254639,119
49.50010967254639,180
49.50010967254639,16
49.50010967254639,152
49.50010967254639,368
49.50010967254639,168
49.50010967254639,163
49.59576082229614,92
49.59576082229614,61
49.59576082229614,0
49.59576082229614,140
49.59576082229614,320
49.59576082229614,2
49.59576082229614,90
49.59576082229614,85
49.59576082229614,61
49.59576082229614,23
49.70696687698364,92
49.70696687698364,28
49.70696687698364,189
49.70696687698364,22
49.70696687698364,3
49.70696687698364,431
49.70696687698364,121
49.70696687698364,238
49.70696687698364,12
49.70696687698364,259
49.802645444869995,24
49.802645444869995,124
49.802645444869995,117
49.802645444869995,43
49.802645444869995,418
49.802645444869995,7
49.802645444869995,138
49.802645444869995,230
49.802645444869995,2
49.802645444869995,227
49.91368556022644,59
49.91368556022644,36
49.91368556022644,6
49.91368556022644,47
49.91368556022644,0
49.91368556022644,41
49.91368556022644,84
49.91368556022644,0
49.91368556022644,10
49.91368556022644,62
50.009459257125854,8
50.009459257125854,28
50.009459257125854,0
50.009459257125854,3
50.009459257125854,13
50.009459257125854,23
50.009459257125854,149
50.009459257125854,105
50.009459257125854,5
50.009459257125854,15
50.1056125164032,0
50.1056125164032,3
50.1056125164032,0
50.1056125164032,0
50.1056125164032,0
50.1056125164032,3
50.1056125164032,0
50.1056125164032,0
50.1056125164032,0
50.1056125164032,9
50.21766495704651,2
50.21766495704651,0
50.21766495704651,2
50.21766495704651,0
50.21766495704651,1
50.21766495704651,1
50.21766495704651,0
50.21766495704651,3
50.21766495704651,0
50.21766495704651,0
50.313573360443115,0
50.313573360443115,0
50.313573360443115,0
50.313573360443115,6
50.313573360443115,0
50.313573360443115,4
50.313573360443115,0
50.313573360443115,0
50.313573360443115,0
50.313573360443115,0
50.40849471092224,0
50.40849471092224,0
50.40849471092224,0
50.40849471092224,0
50.40849471092224,2
50.40849471092224,0
50.40849471092224,0
50.40849471092224,0
50.40849471092224,0
50.40849471092224,0
50.519853591918945,7
50.519853591918945,1
50.519853591918945,0
50.519853591918945,0
50.519853591918945,1
50.519853591918945,2
50.519853591918945,4
50.519853591918945,0
50.519853591918945,0
50.519853591918945,0
50.61480760574341,0
50.61480760574341,0
50.61480760574341,0
50.61480760574341,0
50.61480760574341,0
50.61480760574341,0
50.61480760574341,0
50.61480760574341,1
50.61480760574341,0
50.69387149810791,0
50.69387149810791,0
50.69387149810791,0
50.69387149810791,0
50.69387149810791,0
50.69387149810791,4
50.69387149810791,0
50.69387149810791,0
50.69387149810791,0
50.78982710838318,0
50.78982710838318,0
50.78982710838318,0
50.78982710838318,0
50.78982710838318,0
50.78982710838318,0
50.78982710838318,0
50.78982710838318,0
50.78982710838318,0
50.885634422302246,0
50.885634422302246,0
50.885634422302246,0
50.885634422302246,0
50.885634422302246,0
50.885634422302246,0
50.885634422302246,0
50.885634422302246,0
50.885634422302246,0
50.98115396499634,0
50.98115396499634,2
50.98115396499634,0
50.98115396499634,0
50.98115396499634,0
50.98115396499634,0
50.98115396499634,0
50.98115396499634,2
50.98115396499634,0
50.98115396499634,5
51.08763885498047,1
51.08763885498047,0
51.08763885498047,0
51.08763885498047,0
51.08763885498047,0
51.08763885498047,0
51.08763885498047,0
51.08763885498047,0
51.08763885498047,3
51.08763885498047,0
51.18805003166199,0
51.18805003166199,0
51.18805003166199,0
51.18805003166199,7
51.18805003166199,0
51.18805003166199,7
51.18805003166199,0
51.18805003166199,0
51.18805003166199,0
51.28345990180969,4
51.28345990180969,0
51.28345990180969,0
51.28345990180969,0
51.28345990180969,0
51.28345990180969,0
51.28345990180969,0
51.28345990180969,0
51.28345990180969,0
51.28345990180969,0
51.38094758987427,7
51.38094758987427,0
51.38094758987427,0
51.38094758987427,2
51.38094758987427,0
51.38094758987427,0
51.38094758987427,0
51.38094758987427,0
51.38094758987427,0
51.38094758987427,1
51.47416806221008,0
51.47416806221008,0
51.47416806221008,7
51.47416806221008,3
51.47416806221008,0
51.47416806221008,2
51.47416806221008,0
51.47416806221008,0
51.47416806221008,0
51.47416806221008,0
51.58521628379822,2
51.58521628379822,0
51.58521628379822,0
51.58521628379822,0
51.58521628379822,0
51.58521628379822,0
51.58521628379822,0
51.58521628379822,0
51.58521628379822,1
51.58521628379822,0
51.681215047836304,0
51.681215047836304,0
51.681215047836304,0
51.681215047836304,0
51.681215047836304,0
51.681215047836304,0
51.681215047836304,0
51.681215047836304,2
51.681215047836304,0
51.78229260444641,16
51.78229260444641,0
51.78229260444641,0
51.78229260444641,0
51.78229260444641,2
51.78229260444641,0
51.78229260444641,1
51.78229260444641,0
51.78229260444641,0
51.78229260444641,0
51.88846468925476,0
51.88846468925476,0
51.88846468925476,3
51.88846468925476,0
51.88846468925476,6
51.88846468925476,0
51.88846468925476,6
51.88846468925476,2
51.88846468925476,5
51.88846468925476,0
51.98425817489624,0
51.98425817489624,0
51.98425817489624,0
51.98425817489624,0
51.98425817489624,0
51.98425817489624,0
51.98425817489624,0
51.98425817489624,0
51.98425817489624,0
51.98425817489624,0
52.08980131149292,0
52.08980131149292,5
52.08980131149292,2
52.08980131149292,4
52.08980131149292,0
52.08980131149292,0
52.08980131149292,0
52.08980131149292,0
52.08980131149292,0
52.08980131149292,2
52.1916766166687,0
52.1916766166687,5
52.1916766166687,0
52.1916766166687,7
52.1916766166687,1
52.1916766166687,0
52.1916766166687,0
52.1916766166687,0
52.1916766166687,1
52.1916766166687,0
52.286930561065674,0
52.286930561065674,0
52.286930561065674,0
52.286930561065674,0
52.286930561065674,0
52.286930561065674,0
52.286930561065674,3
52.286930561065674,0
52.286930561065674,0
52.286930561065674,2
52.382882595062256,0
52.382882595062256,0
52.382882595062256,0
52.382882595062256,0
52.382882595062256,0
52.382882595062256,1
52.382882595062256,2
52.382882595062256,2
52.382882595062256,0
52.382882595062256,1
52.489179849624634,0
52.489179849624634,2
52.489179849624634,0
52.489179849624634,1
52.489179849624634,0
52.489179849624634,0
52.489179849624634,0
52.489179849624634,1
52.489179849624634,0
52.58443737030029,0
52.58443737030029,0
52.58443737030029,0
52.58443737030029,0
52.58443737030029,0
52.58443737030029,0
52.58443737030029,0
52.58443737030029,0
52.58443737030029,0
52.58443737030029,0
52.67073369026184,0
52.67073369026184,0
52.67073369026184,0
52.67073369026184,0
52.67073369026184,1
52.67073369026184,0
52.67073369026184,0
52.67073369026184,0
52.67073369026184,0
52.76612329483032,0
52.76612329483032,0
52.76612329483032,0
52.76612329483032,0
52.76612329483032,1
52.76612329483032,0
52.76612329483032,1
52.76612329483032,4
52.76612329483032,4
52.86597204208374,0
52.86597204208374,0
52.86597204208374,0
52.86597204208374,0
52.86597204208374,3
52.86597204208374,0
52.86597204208374,0
52.86597204208374,0
52.86597204208374,0
52.96167612075806,9
52.96167612075806,14
52.96167612075806,3
52.96167612075806,0
52.96167612075806,3
52.96167612075806,0
52.96167612075806,3
52.96167612075806,0
52.96167612075806,5
52.96167612075806,6
53.05155396461487,5
53.05155396461487,5
53.05155396461487,0
53.05155396461487,0
53.05155396461487,0
53.05155396461487,0
53.05155396461487,8
53.05155396461487,4
53.05155396461487,4
53.149332761764526,0
53.149332761764526,0
53.149332761764526,3
53.149332761764526,1
53.149332761764526,0
53.149332761764526,1
53.149332761764526,1
53.149332761764526,0
53.149332761764526,0
53.242844343185425,0
53.242844343185425,3
53.242844343185425,0
53.242844343185425,0
53.242844343185425,0
53.242844343185425,9
53.242844343185425,0
53.242844343185425,0
53.242844343185425,0
53.33320116996765,0
53.33320116996765,0
53.33320116996765,5
53.33320116996765,0
53.33320116996765,9
53.33320116996765,0
53.33320116996765,0
53.33320116996765,0
53.33320116996765,0
53.33320116996765,0
53.42893195152283,0
53.42893195152283,0
53.42893195152283,0
53.42893195152283,0
53.42893195152283,2
53.42893195152283,0
53.42893195152283,2
53.42893195152283,7
53.42893195152283,1
53.51467442512512,0
53.51467442512512,0
53.51467442512512,0
53.51467442512512,0
53.51467442512512,0
53.51467442512512,0
53.51467442512512,0
53.51467442512512,1
53.51467442512512,9
53.60853719711304,0
53.60853719711304,0
53.60853719711304,6
53.60853719711304,0
53.60853719711304,3
53.60853719711304,0
53.60853719711304,0
53.60853719711304,0
53.60853719711304,7
53.60853719711304,0
53.70391488075256,0
53.70391488075256,4
53.70391488075256,16
53.70391488075256,0
53.70391488075256,4
53.70391488075256,1
53.70391488075256,4
53.70391488075256,4
53.70391488075256,2
53.81819701194763,0
53.81819701194763,4
53.81819701194763,3
53.81819701194763,0
53.81819701194763,0
53.81819701194763,0
53.81819701194763,4
53.81889367103577,0
53.81889367103577,0
53.81889367103577,1
53.92235779762268,0
53.92235779762268,0
53.92235779762268,2
53.92235779762268,0
53.92235779762268,0
53.92235779762268,0
53.92235779762268,2
53.92235779762268,0
53.92235779762268,4
53.92235779762268,0
54.01662254333496,7
54.01662254333496,0
54.01662254333496,0
54.01662254333496,4
54.01662254333496,11
54.01662254333496,270
54.01662254333496,0
54.01662254333496,0
54.01662254333496,10
54.01662254333496,8
54.12922239303589,1
54.12922239303589,0
54.12922239303589,0
54.12922239303589,0
54.12922239303589,1
54.12922239303589,5
54.12922239303589,0
54.12922239303589,1
54.12922239303589,7
54.12922239303589,8
54.12922239303589,0
54.22789263725281,5
54.22789263725281,6
54.22789263725281,0
54.22789263725281,9
54.22789263725281,1
54.22789263725281,2
54.22789263725281,0
54.22789263725281,5
54.22789263725281,0
54.328911542892456,10
54.328911542892456,0
54.328911542892456,3
54.328911542892456,17
54.328911542892456,0
54.328911542892456,0
54.328911542892456,18
54.328911542892456,0
54.328911542892456,5
54.328911542892456,0
54.42442727088928,0
54.42442727088928,0
54.42442727088928,0
54.42442727088928,0
54.42442727088928,0
54.42442727088928,0
54.42442727088928,0
54.42442727088928,1
54.42442727088928,0
54.42442727088928,0
54.52502489089966,0
54.52502489089966,0
54.52502489089966,2
54.52502489089966,0
54.52502489089966,0
54.52703261375427,0
54.52703261375427,0
54.52703261375427,0
54.52703261375427,0
54.52703261375427,0
54.62609004974365,0
54.62609004974365,0
54.62609004974365,1
54.62609004974365,3
54.62609004974365,1
54.62609004974365,0
54.62609004974365,0
54.62609004974365,1
54.62609004974365,4
54.72668480873108,0
54.72668480873108,0
54.72668480873108,5
54.72668480873108,0
54.72668480873108,2
54.72668480873108,0
54.72668480873108,0
54.72668480873108,0
54.72668480873108,4
54.72668480873108,0
54.82304859161377,6
54.82304859161377,16
54.82304859161377,0
54.82304859161377,2
54.82304859161377,0
54.82304859161377,0
54.82304859161377,0
54.82304859161377,5
54.82304859161377,0
54.82304859161377,0
54.93447494506836,2
54.93447494506836,0
54.93447494506836,7
54.93447494506836,0
54.93447494506836,0
54.93447494506836,3
54.93447494506836,6
54.93447494506836,0
54.93447494506836,0
54.93447494506836,0
54.93447494506836,0
55.04540491104126,0
55.04598093032837,0
55.04598093032837,0
55.04598093032837,4
55.04598093032837,1
55.04598093032837,0
55.04598093032837,15
55.04598093032837,6
55.04598093032837,0
55.04598093032837,0
55.04598093032837,8
55.140620470047,7
55.140620470047,0
55.140620470047,0
55.140620470047,0
55.140620470047,1
55.140620470047,0
55.140620470047,0
55.140620470047,10
55.140620470047,0
55.140620470047,0
55.25198483467102,5
55.25198483467102,5
55.25198483467102,0
55.25198483467102,1
55.25198483467102,0
55.25198483467102,0
55.25198483467102,10
55.25198483467102,1
55.25198483467102,4
55.25198483467102,4
55.3625111579895,0
55.3625111579895,5
55.3625111579895,0
55.3625111579895,0
55.3625111579895,10
55.3625111579895,0
55.3625111579895,0
55.3625111579895,0
55.3625111579895,0
55.3625111579895,0
55.3625111579895,6
55.45766854286194,0
55.45766854286194,6
55.45766854286194,5
55.45766854286194,3
55.45766854286194,2
55.45766854286194,0
55.45766854286194,0
55.45766854286194,2
55.45766854286194,0
55.45766854286194,0
55.55284023284912,2
55.55284023284912,0
55.55284023284912,0
55.55284023284912,0
55.55284023284912,0
55.55284023284912,7
55.55284023284912,0
55.55284023284912,0
55.55284023284912,0
55.64817452430725,0
55.64817452430725,0
55.64817452430725,15
55.64817452430725,6
55.64817452430725,0
55.64817452430725,0
55.64817452430725,4
55.64817452430725,8
55.64817452430725,0
55.64817452430725,2
55.74386262893677,5
55.74386262893677,0
55.74386262893677,0
55.74386262893677,0
55.74386262893677,0
55.74386262893677,4
55.74386262893677,0
55.74386262893677,0
55.74386262893677,0
55.840083360672,0
55.840083360672,0
55.840083360672,0
55.840083360672,2
55.840083360672,0
55.840083360672,2
55.840083360672,1
55.840083360672,3
55.840083360672,3
55.93413996696472,0
55.93413996696472,0
55.93413996696472,2
55.93413996696472,0
55.93413996696472,0
55.93413996696472,0
55.93413996696472,2
55.93413996696472,0
55.93413996696472,1
55.93413996696472,0
56.045239210128784,7
56.045239210128784,0
56.045239210128784,5
56.045239210128784,0
56.045239210128784,1
56.045239210128784,23
56.045239210128784,0
56.045239210128784,0
56.045239210128784,0
56.045239210128784,0
56.13986587524414,0
56.13986587524414,0
56.13986587524414,0
56.13986587524414,7
56.13986587524414,0
56.13986587524414,0
56.13986587524414,0
56.13986587524414,0
56.13986587524414,0
56.13986587524414,0
56.24804139137268,0
56.24804139137268,0
56.24804139137268,4
56.24804139137268,0
56.24804139137268,0
56.24804139137268,0
56.24804139137268,0
56.24804139137268,0
56.24804139137268,0
56.24804139137268,0
56.347224950790405,0
56.348421573638916,0
56.348421573638916,3
56.348421573638916,11
56.348421573638916,6
56.348421573638916,0
56.348421573638916,0
56.348421573638916,1
56.348421573638916,2
56.348421573638916,1
56.442959785461426,0
56.442959785461426,0
56.442959785461426,0
56.442959785461426,0
56.442959785461426,2
56.442959785461426,22
56.442959785461426,0
56.442959785461426,1
56.442959785461426,0
56.442959785461426,0
56.537938833236694,13
56.537938833236694,1
56.537938833236694,0
56.537938833236694,0
56.537938833236694,0
56.537938833236694,8
56.537938833236694,0
56.537938833236694,7
56.537938833236694,3
56.537938833236694,3
56.65586471557617,0
56.65586471557617,5
56.65586471557617,4
56.65586471557617,4
56.65586471557617,0
56.65586471557617,2
56.65586471557617,0
56.65586471557617,0
56.65586471557617,0
56.65586471557617,5
56.74526047706604,0
56.74526047706604,0
56.74526047706604,2
56.74526047706604,0
56.74526047706604,0
56.74526047706604,0
56.74526047706604,2
56.74526047706604,2
56.74526047706604,0
56.84074854850769,0
56.84074854850769,0
56.84074854850769,0
56.84074854850769,1
56.84074854850769,1
56.84074854850769,0
56.84074854850769,0
56.84074854850769,0
56.84074854850769,0
56.84074854850769,2
56.94176769256592,0
56.94176769256592,4
56.951728105545044,0
56.951728105545044,0
56.951728105545044,0
56.951728105545044,0
56.951728105545044,3
56.951728105545044,0
56.951728105545044,0
56.951728105545044,0
57.048816204071045,0
57.048816204071045,0
57.048816204071045,4
57.048816204071045,2
57.048816204071045,0
57.048816204071045,2
57.048816204071045,0
57.048816204071045,2
57.048816204071045,2
57.048816204071045,9
57.138304233551025,0
57.138304233551025,5
57.138304233551025,0
57.138304233551025,0
57.138304233551025,15
57.14339327812195,11
57.14339327812195,4
57.14339327812195,1
57.14339327812195,0
57.23670530319214,12
57.23670530319214,1
57.23670530319214,1
57.23670530319214,0
57.23670530319214,0
57.23670530319214,0
57.23670530319214,11
57.23670530319214,0
57.23670530319214,0
57.333693742752075,0
57.333693742752075,0
57.333693742752075,2
57.333693742752075,0
57.333693742752075,0
57.333693742752075,0
57.333693742752075,0
57.333693742752075,0
57.333693742752075,0
57.333693742752075,4
57.41293454170227,0
57.41293454170227,0
57.41293454170227,0
57.41293454170227,0
57.41293454170227,0
57.41293454170227,0
57.41293454170227,0
57.42870855331421,0
57.42870855331421,0
57.519787549972534,0
57.519787549972534,0
57.519787549972534,0
57.519787549972534,4
57.52190637588501,0
57.52190637588501,0
57.52190637588501,0
57.52190637588501,0
57.52190637588501,0
57.60375618934631,0
57.60375618934631,0
57.60375618934631,0
57.60375618934631,0
57.60375618934631,12
57.60375618934631,4
57.60375618934631,4
57.60375618934631,0
57.60375618934631,0
57.71502757072449,0
57.71502757072449,1
57.71502757072449,0
57.71502757072449,0
57.71502757072449,0
57.71502757072449,21
57.71502757072449,0
57.71502757072449,2
57.71502757072449,0
57.71502757072449,1
57.81008863449097,0
57.81008863449097,9
57.81008863449097,0
57.81008863449097,1
57.81008863449097,0
57.81008863449097,5
57.81008863449097,0
57.81008863449097,0
57.81008863449097,0
57.90565323829651,0
57.90565323829651,0
57.90565323829651,7
57.90565323829651,0
57.90565323829651,8
57.90565323829651,6
57.90565323829651,9
57.90565323829651,0
57.90565323829651,0
57.90565323829651,0
58.00218152999878,0
58.00218152999878,0
58.00218152999878,0
58.00218152999878,0
58.00218152999878,0
58.00218152999878,3
58.00218152999878,4
58.00218152999878,6
58.00218152999878,0
58.09754800796509,0
58.09754800796509,0
58.09754800796509,0
58.09754800796509,0
58.09754800796509,5
58.09754800796509,0
58.09955310821533,0
58.09955310821533,0
58.09955310821533,0
58.09955310821533,0
58.191044330596924,0
58.191044330596924,0
58.191044330596924,4
58.191044330596924,0
58.191044330596924,2
58.191044330596924,0
58.191044330596924,2
58.191044330596924,0
58.191044330596924,2
58.287949562072754,0
58.287949562072754,9
58.287949562072754,0
58.287949562072754,9
58.287949562072754,0
58.287949562072754,0
58.287949562072754,0
58.287949562072754,16
58.287949562072754,0
58.38130712509155,0
58.38130712509155,1
58.38130712509155,0
58.38130712509155,2
58.38130712509155,0
58.38130712509155,0
58.38130712509155,3
58.38130712509155,0
58.38130712509155,5
58.38130712509155,0
58.477426290512085,1
58.477426290512085,0
