Time,EMG
0.6893215179443359,0
0.6893215179443359,0
0.6893215179443359,0
0.6893215179443359,0
0.6893215179443359,2
0.6893215179443359,1
0.6893215179443359,0
0.6893215179443359,0
0.6893215179443359,0
0.6893215179443359,0
0.6893215179443359,0
0.6893215179443359,0
0.6893215179443359,0
0.6893215179443359,0
0.6893215179443359,0
0.6893215179443359,0
0.6893215179443359,0
0.6893215179443359,1
0.6893215179443359,13
0.6893215179443359,0
0.6893215179443359,0
0.6893215179443359,0
0.6893215179443359,0
0.6893215179443359,0
0.6893215179443359,3
0.6920835971832275,0
0.6920835971832275,0
0.6920835971832275,0
0.6920835971832275,1
0.6920835971832275,0
0.6920835971832275,0
0.6927533149719238,0
0.6927533149719238,0
0.6927533149719238,0
0.6927533149719238,0
0.6927533149719238,0
0.6927533149719238,0
0.6927533149719238,6
0.6927533149719238,8
0.6927533149719238,0
0.6927533149719238,0
0.6927533149719238,0
0.6927533149719238,0
0.6927533149719238,0
0.6927533149719238,0
0.6927533149719238,0
0.6927533149719238,0
0.6927533149719238,0
0.6927533149719238,6
0.6927533149719238,0
0.6927533149719238,0
0.6927533149719238,0
0.6927533149719238,1
0.6927533149719238,0
0.6927533149719238,0
0.6927533149719238,0
0.6927533149719238,0
0.6927533149719238,1
0.6927533149719238,0
0.6927533149719238,0
0.6927533149719238,4
0.6927533149719238,0
0.6927533149719238,3
0.6927533149719238,0
0.6927533149719238,0
0.6927533149719238,0
0.6927533149719238,2
0.6927533149719238,0
0.6927533149719238,0
0.6927533149719238,0
0.6927533149719238,0
0.6927533149719238,0
0.6927533149719238,0
0.6927533149719238,0
0.6927533149719238,0
0.6927533149719238,0
0.6927533149719238,0
0.6927533149719238,0
0.6927533149719238,0
0.6927533149719238,0
0.6927533149719238,0
0.6927533149719238,0
0.6927533149719238,0
0.6927533149719238,0
0.6927533149719238,0
0.6927533149719238,0
0.6927533149719238,0
0.6927533149719238,0
0.6927533149719238,0
0.6927533149719238,0
0.6927533149719238,0
0.6927533149719238,0
0.6927533149719238,0
0.6927533149719238,0
0.6927533149719238,0
0.6927533149719238,0
0.6927533149719238,0
0.6927533149719238,3
0.6927533149719238,0
0.6927533149719238,0
0.6927533149719238,0
0.6927533149719238,0
0.6927533149719238,0
0.6927533149719238,0
0.6927533149719238,0
0.6927533149719238,0
0.6927533149719238,0
0.6927533149719238,0
0.6927533149719238,0
0.6927533149719238,0
0.6927533149719238,0
0.6927533149719238,0
0.6927533149719238,0
0.6927533149719238,0
0.6927533149719238,3
0.6927533149719238,0
0.6927533149719238,0
0.919795036315918,0
0.919795036315918,0
0.919795036315918,0
0.919795036315918,0
0.919795036315918,0
0.919795036315918,0
0.919795036315918,0
0.919795036315918,0
0.919795036315918,0
0.919795036315918,0
0.919795036315918,0
0.919795036315918,0
0.919795036315918,0
0.919795036315918,0
0.919795036315918,0
0.919795036315918,0
0.919795036315918,0
0.919795036315918,0
0.919795036315918,0
0.9218146800994873,0
0.9218146800994873,0
0.9218146800994873,0
1.155609130859375,0
1.155609130859375,0
1.155609130859375,0
1.155609130859375,0
1.155609130859375,0
1.155609130859375,0
1.155609130859375,0
1.155609130859375,0
1.155609130859375,0
1.155609130859375,0
1.155609130859375,0
1.155609130859375,18
1.155609130859375,15
1.155609130859375,15
1.155609130859375,2
1.155609130859375,0
1.155609130859375,79
1.155609130859375,86
1.155609130859375,71
1.155609130859375,69
1.155609130859375,0
1.155609130859375,51
1.155609130859375,19
1.3483588695526123,5
1.3483588695526123,26
1.3483588695526123,50
1.3483588695526123,7
1.3483588695526123,3
1.3483588695526123,3
1.3483588695526123,25
1.3483588695526123,11
1.3483588695526123,5
1.3483588695526123,0
1.3483588695526123,0
1.3483588695526123,0
1.3483588695526123,1
1.3483588695526123,0
1.3483588695526123,0
1.3483588695526123,0
1.3483588695526123,0
1.3483588695526123,0
1.3483588695526123,0
1.481092929840088,0
1.481092929840088,0
1.481092929840088,0
1.481092929840088,17
1.481092929840088,3
1.481092929840088,0
1.481092929840088,5
1.481092929840088,0
1.481092929840088,0
1.481092929840088,0
1.481092929840088,0
1.481092929840088,0
1.481092929840088,0
1.6476352214813232,0
1.6476352214813232,0
1.6476352214813232,0
1.6476352214813232,0
1.6476352214813232,0
1.6476352214813232,1
1.6476352214813232,0
1.6476352214813232,0
1.6476352214813232,0
1.6476352214813232,0
1.651327133178711,0
1.651327133178711,0
1.651327133178711,0
1.651327133178711,0
1.651327133178711,0
1.651327133178711,0
1.651327133178711,0
1.7720675468444824,0
1.7720675468444824,0
1.7720675468444824,0
1.7720675468444824,0
1.7720675468444824,0
1.7720675468444824,0
1.7720675468444824,0
1.7720675468444824,0
1.7720675468444824,0
1.7720675468444824,0
1.7720675468444824,0
1.7720675468444824,0
1.7720675468444824,0
1.8836917877197266,0
1.8836917877197266,0
1.8836917877197266,0
1.8836917877197266,0
1.8836917877197266,0
1.8836917877197266,0
1.8836917877197266,0
1.8836917877197266,0
1.8836917877197266,0
1.8836917877197266,0
1.9788358211517334,0
1.9788358211517334,0
1.9788358211517334,0
1.9788358211517334,13
1.9788358211517334,2
1.9788358211517334,0
1.9788358211517334,0
1.9788358211517334,1
1.9788358211517334,0
1.9788358211517334,0
2.085932970046997,5
2.085932970046997,0
2.085932970046997,0
2.085932970046997,3
2.085932970046997,9
2.085932970046997,1
2.085932970046997,28
2.085932970046997,6
2.085932970046997,0
2.085932970046997,0
2.1875061988830566,19
2.1875061988830566,10
2.1875061988830566,12
2.1875061988830566,30
2.1875061988830566,0
2.1875061988830566,0
2.1875061988830566,4
2.1875061988830566,6
2.1875061988830566,55
2.1875061988830566,0
2.2922494411468506,0
2.2922494411468506,0
2.2922494411468506,10
2.294254779815674,8
2.294254779815674,0
2.294254779815674,0
2.294254779815674,7
2.294254779815674,1
2.294254779815674,0
2.294254779815674,0
2.392796039581299,0
2.392796039581299,23
2.392796039581299,15
2.392796039581299,0
2.392796039581299,24
2.392796039581299,0
2.392796039581299,6
2.392796039581299,0
2.392796039581299,18
2.392796039581299,24
2.4919450283050537,2
2.4919450283050537,0
2.493479013442993,0
2.493479013442993,0
2.493479013442993,0
2.493479013442993,0
2.493479013442993,4
2.493479013442993,0
2.493479013442993,0
2.493479013442993,0
2.5914266109466553,0
2.5914266109466553,13
2.5914266109466553,1
2.5914266109466553,17
2.5914266109466553,0
2.5914266109466553,0
2.5914266109466553,6
2.5914266109466553,0
2.5914266109466553,0
2.6807518005371094,0
2.6807518005371094,0
2.6807518005371094,0
2.6807518005371094,0
2.6807518005371094,0
2.6807518005371094,0
2.6807518005371094,0
2.6807518005371094,0
2.6807518005371094,0
2.6807518005371094,0
2.7902116775512695,12
2.7902116775512695,6
2.7902116775512695,5
2.7902116775512695,14
2.7902116775512695,4
2.7902116775512695,1
2.7902116775512695,7
2.7902116775512695,1
2.7902116775512695,7
2.7902116775512695,14
2.8817243576049805,11
2.8817243576049805,1
2.8817243576049805,21
2.8817243576049805,52
2.8817243576049805,111
2.8817243576049805,36
2.8817243576049805,11
2.8817243576049805,3
2.8817243576049805,6
2.9970314502716064,7
2.9970314502716064,8
2.9970314502716064,0
2.9970314502716064,0
2.9970314502716064,0
2.9970314502716064,2
2.9970314502716064,0
2.9970314502716064,1
2.9970314502716064,124
2.9970314502716064,2
2.999037981033325,1
3.1044962406158447,0
3.1044962406158447,4
3.1044962406158447,108
3.1044962406158447,89
3.1044962406158447,0
3.1044962406158447,43
3.1044962406158447,3
3.1044962406158447,0
3.1044962406158447,25
3.1044962406158447,53
3.1044962406158447,0
3.1044962406158447,29
3.2277607917785645,21
3.2277607917785645,0
3.2277607917785645,3
3.229766368865967,0
3.229766368865967,6
3.229766368865967,0
3.229766368865967,62
3.229766368865967,11
3.229766368865967,0
3.229766368865967,5
3.229766368865967,22
3.3285298347473145,0
3.3285298347473145,0
3.3285298347473145,0
3.3285298347473145,0
3.3285298347473145,0
3.3285298347473145,54
3.3285298347473145,26
3.3285298347473145,25
3.3285298347473145,0
3.3285298347473145,0
3.438884973526001,0
3.438884973526001,0
3.438884973526001,0
3.438884973526001,0
3.438884973526001,0
3.438884973526001,0
3.438884973526001,6
3.438884973526001,0
3.438884973526001,4
3.438884973526001,0
3.438884973526001,2
3.534592866897583,2
3.534592866897583,49
3.534592866897583,0
3.534592866897583,0
3.534592866897583,4
3.534592866897583,2
3.534592866897583,0
3.534592866897583,0
3.534592866897583,0
3.534592866897583,0
3.6471354961395264,0
3.6471354961395264,0
3.6471354961395264,0
3.6471354961395264,0
3.6471354961395264,10
3.6471354961395264,6
3.6471354961395264,0
3.6471354961395264,15
3.6471354961395264,0
3.6471354961395264,0
3.6471354961395264,0
3.752264976501465,0
3.752264976501465,0
3.752264976501465,0
3.752264976501465,2
3.752264976501465,0
3.752264976501465,0
3.752264976501465,11
3.752264976501465,3
3.752264976501465,0
3.8532116413116455,2
3.8532116413116455,0
3.8532116413116455,4
3.8532116413116455,8
3.8532116413116455,0
3.8532116413116455,0
3.8532116413116455,0
3.8532116413116455,0
3.8532116413116455,0
3.8532116413116455,0
3.9316928386688232,0
3.9316928386688232,0
3.9316928386688232,0
3.9316928386688232,0
3.9316928386688232,0
3.9316928386688232,0
3.9316928386688232,0
3.9316928386688232,0
3.9316928386688232,0
4.026356935501099,0
4.026356935501099,0
4.026356935501099,0
4.026356935501099,0
4.026356935501099,0
4.04207181930542,2
4.04207181930542,21
4.04207181930542,13
4.04207181930542,2
4.04207181930542,0
4.121463775634766,1
4.121463775634766,0
4.121463775634766,5
4.121463775634766,10
4.121463775634766,11
4.121463775634766,1
4.121463775634766,0
4.121463775634766,1
4.121463775634766,0
4.218847751617432,7
4.218847751617432,0
4.218847751617432,0
4.218847751617432,0
4.218847751617432,2
4.218847751617432,0
4.218847751617432,0
4.218847751617432,0
4.218847751617432,0
4.312794208526611,0
4.312794208526611,3
4.312794208526611,0
4.312794208526611,0
4.312794208526611,0
4.312794208526611,0
4.312794208526611,2
4.312794208526611,0
4.312794208526611,0
4.312794208526611,4
4.4219889640808105,0
4.4219889640808105,0
4.4219889640808105,0
4.4219889640808105,0
4.4219889640808105,0
4.4219889640808105,0
4.4219889640808105,0
4.4237353801727295,0
4.4237353801727295,0
4.5034496784210205,0
4.5034496784210205,0
4.5034496784210205,0
4.5034496784210205,0
4.5034496784210205,0
4.5034496784210205,0
4.5034496784210205,0
4.5034496784210205,1
4.5034496784210205,0
4.614964008331299,0
4.614964008331299,1
4.614964008331299,0
4.614964008331299,0
4.614964008331299,0
4.614964008331299,0
4.614964008331299,0
4.614964008331299,0
4.614964008331299,0
4.614964008331299,0
4.70854926109314,0
4.70854926109314,11
4.70854926109314,0
4.70854926109314,1
4.70854926109314,3
4.70854926109314,0
4.70854926109314,14
4.70854926109314,0
4.70854926109314,19
4.801257610321045,6
4.801257610321045,38
4.801257610321045,24
4.801257610321045,8
4.801257610321045,143
4.801257610321045,64
4.801257610321045,21
4.801257610321045,1
4.801257610321045,8
4.8856520652771,6
4.8856520652771,0
4.8856520652771,0
4.8856520652771,7
4.8856520652771,7
4.8856520652771,1
4.8856520652771,0
4.8856520652771,0
4.8856520652771,0
4.8856520652771,0
4.980363607406616,0
4.980363607406616,0
4.980363607406616,0
4.980363607406616,0
4.980363607406616,0
4.980363607406616,0
4.980363607406616,0
4.980363607406616,0
4.980363607406616,0
5.081576347351074,0
5.081576347351074,0
5.081576347351074,0
5.081576347351074,0
5.081576347351074,0
5.081576347351074,0
5.081576347351074,0
5.081576347351074,0
5.081576347351074,0
5.170809030532837,0
5.170809030532837,0
5.170809030532837,0
5.170809030532837,0
5.170809030532837,0
5.170809030532837,0
5.170809030532837,0
5.170809030532837,0
5.170809030532837,0
5.170809030532837,0
5.266102075576782,0
5.266102075576782,0
5.266102075576782,0
5.266102075576782,3
5.266102075576782,5
5.266102075576782,0
5.266102075576782,0
5.266102075576782,0
5.266102075576782,0
5.36246657371521,0
5.36246657371521,0
5.36246657371521,0
5.36246657371521,0
5.36246657371521,0
5.36246657371521,0
5.36246657371521,0
5.36246657371521,0
5.36246657371521,1
5.36246657371521,0
5.45650577545166,0
5.45650577545166,0
5.45650577545166,0
5.45650577545166,0
5.45650577545166,0
5.45650577545166,0
5.45650577545166,0
5.45650577545166,0
5.45650577545166,0
5.5653235912323,0
5.5653235912323,0
5.5653235912323,0
5.5653235912323,0
5.5653235912323,0
5.5653235912323,0
5.5653235912323,0
5.567070245742798,0
5.567070245742798,0
5.567070245742798,0
5.66962456703186,0
5.66962456703186,0
5.66962456703186,0
5.66962456703186,0
5.66962456703186,0
5.66962456703186,0
5.66962456703186,0
5.66962456703186,0
5.66962456703186,0
5.66962456703186,0
5.7567291259765625,0
5.7567291259765625,0
5.7567291259765625,0
5.7567291259765625,0
5.7567291259765625,0
5.7567291259765625,0
5.7567291259765625,0
5.7567291259765625,0
5.7567291259765625,0
5.7567291259765625,0
5.86832332611084,0
5.86832332611084,0
5.86832332611084,0
5.86832332611084,0
5.86832332611084,0
5.86832332611084,0
5.86832332611084,0
5.8703293800354,1
5.8703293800354,0
5.968085289001465,0
5.968085289001465,0
5.968085289001465,0
5.968085289001465,0
5.970089912414551,0
5.970089912414551,0
5.970089912414551,0
5.970089912414551,0
5.970089912414551,0
5.970089912414551,0
6.059530019760132,0
6.059530019760132,0
6.059530019760132,0
6.059530019760132,0
6.059530019760132,0
6.059530019760132,0
6.059530019760132,0
6.059530019760132,0
6.059530019760132,0
6.059530019760132,0
6.164740562438965,0
6.164740562438965,0
6.164740562438965,0
6.164740562438965,0
6.164740562438965,0
6.164740562438965,0
6.164740562438965,0
6.164740562438965,0
6.164740562438965,0
6.2626612186431885,0
6.2626612186431885,0
6.2626612186431885,0
6.2626612186431885,4
6.2626612186431885,0
6.2626612186431885,7
6.2626612186431885,0
6.2626612186431885,0
6.2626612186431885,0
6.2626612186431885,0
6.356652736663818,0
6.361713171005249,0
6.361713171005249,0
6.361713171005249,0
6.361713171005249,0
6.361713171005249,1
6.361713171005249,0
6.361713171005249,0
6.361713171005249,0
6.361713171005249,0
6.457349538803101,0
6.457349538803101,15
6.457349538803101,88
6.457349538803101,0
6.457349538803101,0
6.457349538803101,5
6.457349538803101,3
6.457349538803101,5
6.457349538803101,0
6.552394151687622,0
6.552394151687622,0
6.552394151687622,21
6.552394151687622,6
6.552394151687622,8
6.5543999671936035,2
6.5543999671936035,2
6.5543999671936035,0
6.5543999671936035,15
6.5543999671936035,0
6.647937059402466,0
6.647937059402466,0
6.647937059402466,18
6.647937059402466,4
6.647937059402466,0
6.647937059402466,41
6.647937059402466,21
6.647937059402466,55
6.647937059402466,3
6.726353406906128,1
6.726353406906128,111
6.726353406906128,128
6.726353406906128,349
6.726353406906128,84
6.726353406906128,92
6.726353406906128,226
6.726353406906128,19
6.726353406906128,15
6.830829381942749,35
6.832835674285889,25
6.832835674285889,15
6.832835674285889,24
6.832835674285889,370
6.832835674285889,11
6.832835674285889,27
6.832835674285889,50
6.832835674285889,719
6.923861026763916,738
6.923861026763916,506
6.923861026763916,991
6.923861026763916,243
6.923861026763916,176
6.923861026763916,106
6.923861026763916,0
6.925866603851318,502
6.925866603851318,2
7.010919094085693,300
7.010919094085693,332
7.010919094085693,266
7.010919094085693,292
7.010919094085693,286
7.010919094085693,132
7.010919094085693,491
7.010919094085693,906
7.010919094085693,41
7.120195627212524,100
7.120195627212524,270
7.120195627212524,335
7.120195627212524,106
7.120195627212524,41
7.120195627212524,89
7.120195627212524,20
7.120195627212524,138
7.120195627212524,1
7.120195627212524,384
7.218839883804321,0
7.218839883804321,308
7.218839883804321,415
7.218839883804321,515
7.218839883804321,483
7.218839883804321,204
7.218839883804321,290
7.218839883804321,55
7.218839883804321,127
7.218839883804321,67
7.312658786773682,159
7.312658786773682,105
7.312658786773682,131
7.312658786773682,811
7.312658786773682,74
7.312658786773682,184
7.312658786773682,251
7.312658786773682,648
7.312658786773682,60
7.4201390743255615,131
7.4201390743255615,348
7.4201390743255615,60
7.4201390743255615,454
7.422144412994385,123
7.422144412994385,395
7.422144412994385,430
7.422144412994385,56
7.422144412994385,302
7.422144412994385,30
7.519333839416504,170
7.519333839416504,21
7.519333839416504,35
7.519333839416504,14
7.519333839416504,494
7.519333839416504,216
7.519333839416504,506
7.519333839416504,26
7.519333839416504,68
7.519333839416504,140
7.615279674530029,148
7.615279674530029,290
7.615279674530029,457
7.615279674530029,93
7.615279674530029,275
7.615279674530029,126
7.615279674530029,30
7.615279674530029,27
7.615279674530029,434
7.615279674530029,533
7.615279674530029,369
7.726812362670898,196
7.726812362670898,1023
7.726812362670898,524
7.726812362670898,8
7.726812362670898,227
7.726812362670898,75
7.726812362670898,88
7.726812362670898,25
7.726812362670898,144
7.726812362670898,87
7.821852207183838,1023
7.821852207183838,203
7.821852207183838,10
7.821852207183838,4
7.821852207183838,141
7.821852207183838,152
7.821852207183838,73
7.821852207183838,390
7.821852207183838,457
7.821852207183838,460
7.936583757400513,48
7.936583757400513,15
7.936583757400513,198
7.936583757400513,30
7.936583757400513,98
7.936583757400513,41
7.936583757400513,845
7.936583757400513,736
7.938588857650757,154
7.938588857650757,123
8.028220653533936,619
8.028220653533936,17
8.028220653533936,26
8.028220653533936,972
8.028220653533936,69
8.028220653533936,584
8.028220653533936,378
8.028220653533936,40
8.028220653533936,168
8.028220653533936,465
8.14203405380249,150
8.14203405380249,32
8.14203405380249,183
8.14203405380249,232
8.14203405380249,295
8.14203405380249,199
8.14203405380249,81
8.14203405380249,33
8.14203405380249,248
8.14203405380249,431
8.240269660949707,80
8.240269660949707,1023
8.240269660949707,30
8.240269660949707,354
8.240269660949707,664
8.240269660949707,680
8.240269660949707,73
8.240269660949707,537
8.240269660949707,489
8.328641891479492,125
8.328641891479492,2
8.328641891479492,282
8.328641891479492,867
8.328641891479492,46
8.328641891479492,206
8.328641891479492,85
8.328641891479492,77
8.328641891479492,174
8.328641891479492,99
8.440111637115479,107
8.440111637115479,193
8.440111637115479,96
8.440111637115479,50
8.440111637115479,160
8.440111637115479,781
8.440111637115479,54
8.440111637115479,27
8.440111637115479,218
8.440111637115479,19
8.53464150428772,136
8.53464150428772,110
8.53464150428772,321
8.53464150428772,152
8.53464150428772,50
8.53464150428772,450
8.53464150428772,24
8.53464150428772,154
8.53464150428772,77
8.53464150428772,106
8.639628648757935,477
8.639628648757935,70
8.639628648757935,336
8.639628648757935,8
8.64163327217102,26
8.64163327217102,110
8.64163327217102,217
8.64163327217102,98
8.64163327217102,0
8.724941730499268,554
8.724941730499268,104
8.724941730499268,606
8.724941730499268,30
8.724941730499268,86
8.724941730499268,54
8.724941730499268,251
8.724941730499268,152
8.724941730499268,498
8.724941730499268,390
8.838695526123047,128
8.838695526123047,26
8.838695526123047,152
8.838695526123047,204
8.838695526123047,234
8.838695526123047,177
8.838695526123047,85
8.838695526123047,358
8.838695526123047,824
8.838695526123047,93
8.93782377243042,455
8.93782377243042,47
8.93782377243042,15
8.93782377243042,74
8.93782377243042,10
8.93782377243042,396
8.93782377243042,7
8.93782377243042,568
8.93782377243042,245
9.026771545410156,26
9.026771545410156,567
9.026771545410156,609
9.026771545410156,1
9.026771545410156,192
9.026771545410156,213
9.026771545410156,379
9.026771545410156,11
9.026771545410156,580
9.026771545410156,36
9.12208890914917,520
9.12208890914917,948
9.12208890914917,119
9.12208890914917,411
9.12208890914917,493
9.12208890914917,38
9.12208890914917,1000
9.12208890914917,185
9.12208890914917,96
9.12208890914917,145
9.217440366744995,181
9.217440366744995,284
9.217440366744995,68
9.217440366744995,379
9.217440366744995,125
9.217440366744995,260
9.217440366744995,33
9.217440366744995,95
9.217440366744995,627
9.330958127975464,161
9.330958127975464,31
9.330958127975464,627
9.330958127975464,136
9.330958127975464,84
9.330958127975464,479
9.330958127975464,159
9.330958127975464,121
9.330958127975464,776
9.330958127975464,101
9.429890632629395,787
9.429890632629395,57
9.431895732879639,602
9.431895732879639,112
9.431895732879639,148
9.431895732879639,225
9.431895732879639,224
9.431895732879639,76
9.431895732879639,60
9.431895732879639,109
9.527094841003418,14
9.527094841003418,117
9.527094841003418,309
9.527094841003418,24
9.529099702835083,377
9.529099702835083,40
9.529099702835083,258
9.529099702835083,72
9.529099702835083,720
9.621265888214111,119
9.621265888214111,72
9.621265888214111,161
9.621265888214111,102
9.621265888214111,135
9.623271703720093,418
9.623271703720093,116
9.623271703720093,58
9.623271703720093,228
9.72069764137268,1012
9.72069764137268,134
9.72069764137268,3
9.72069764137268,110
9.72069764137268,332
9.72069764137268,84
9.72069764137268,50
9.72069764137268,287
9.72069764137268,568
9.72069764137268,177
9.815797567367554,176
9.815797567367554,175
9.815797567367554,1023
9.815797567367554,183
9.815797567367554,426
9.815797567367554,750
9.815797567367554,50
9.815797567367554,250
9.815797567367554,191
9.91390085220337,57
9.915647745132446,77
9.915647745132446,88
9.915647745132446,26
9.915647745132446,50
9.915647745132446,1
9.915647745132446,57
9.915647745132446,6
9.915647745132446,14
9.915647745132446,22
10.005356550216675,0
10.005356550216675,31
10.005356550216675,0
10.005356550216675,114
10.005356550216675,20
10.005356550216675,250
10.010955810546875,603
10.010955810546875,131
10.010955810546875,69
10.106063604354858,1023
10.106063604354858,161
10.106063604354858,239
10.106063604354858,305
10.106063604354858,287
10.106063604354858,435
10.106063604354858,62
10.106063604354858,287
10.106063604354858,272
10.199703693389893,130
10.199703693389893,815
10.199703693389893,18
10.199703693389893,38
10.199703693389893,139
10.199703693389893,37
10.199703693389893,5
10.199703693389893,126
10.199703693389893,23
10.199703693389893,8
10.296008110046387,1023
10.296008110046387,74
10.296008110046387,26
10.296008110046387,70
10.296008110046387,9
10.296008110046387,1020
10.296008110046387,90
10.296760082244873,23
10.296760082244873,335
10.391708612442017,32
10.391708612442017,207
10.391708612442017,74
10.391708612442017,98
10.391708612442017,111
10.391708612442017,477
10.391708612442017,57
10.391708612442017,18
10.391708612442017,53
10.487290859222412,32
10.487290859222412,691
10.487290859222412,161
10.487290859222412,79
10.487290859222412,43
10.487290859222412,24
10.487290859222412,149
10.487290859222412,21
10.487290859222412,17
10.487290859222412,16
10.58588171005249,2
10.58588171005249,509
10.58588171005249,85
10.58588171005249,41
10.58588171005249,10
10.58588171005249,29
10.58588171005249,24
10.58588171005249,308
10.58588171005249,68
10.682431936264038,165
10.682431936264038,72
10.682431936264038,22
10.682431936264038,36
10.682431936264038,2
10.682431936264038,32
10.682431936264038,306
10.684437274932861,143
10.684437274932861,608
10.684437274932861,43
10.780787706375122,37
10.780787706375122,66
10.782350540161133,120
10.782350540161133,112
10.782350540161133,0
10.782350540161133,254
10.782350540161133,119
10.782350540161133,57
10.782350540161133,47
10.782350540161133,7
10.878609895706177,0
10.878609895706177,0
10.878609895706177,0
10.878609895706177,0
10.878609895706177,247
10.878609895706177,79
10.878609895706177,36
10.878609895706177,18
10.878609895706177,8
10.977758646011353,1
10.977758646011353,0
10.977758646011353,7
10.977758646011353,0
10.977758646011353,0
10.977758646011353,0
10.977758646011353,22
10.977758646011353,608
10.977758646011353,25
10.977758646011353,18
11.072766780853271,0
11.072766780853271,1
11.072766780853271,7
11.072766780853271,12
11.072766780853271,4
11.072766780853271,0
11.072766780853271,0
11.072766780853271,0
11.072766780853271,54
11.167351961135864,33
11.167351961135864,6
11.167351961135864,3
11.167351961135864,0
11.167351961135864,0
11.167351961135864,4
11.167351961135864,0
11.167351961135864,0
11.167351961135864,0
11.167351961135864,2
11.271652936935425,0
11.271652936935425,2
11.271652936935425,0
11.271652936935425,1
11.271652936935425,2
11.271652936935425,13
11.271652936935425,2
11.271652936935425,7
11.271652936935425,5
11.271652936935425,2
11.36952018737793,0
11.36952018737793,0
11.36952018737793,0
11.36952018737793,0
11.36952018737793,0
11.36952018737793,0
11.36952018737793,0
11.3715238571167,0
11.3715238571167,1
11.3715238571167,0
11.467449188232422,0
11.467449188232422,0
11.467449188232422,0
11.467449188232422,0
11.467449188232422,0
11.467449188232422,31
11.467449188232422,1
11.467449188232422,2
11.467449188232422,0
11.564857482910156,0
11.564857482910156,1
11.566363096237183,8
11.566363096237183,0
11.566363096237183,0
11.566363096237183,0
11.566363096237183,6
11.566363096237183,0
11.566363096237183,3
11.566363096237183,0
11.661864280700684,0
11.661864280700684,0
11.661864280700684,0
11.663870573043823,0
11.663870573043823,0
11.663870573043823,0
11.663870573043823,1
11.663870573043823,0
11.663870573043823,0
11.759734153747559,0
11.759734153747559,0
11.759734153747559,0
11.759734153747559,0
11.759734153747559,0
11.759734153747559,0
11.759734153747559,0
11.759734153747559,0
11.759734153747559,2
11.759734153747559,0
11.857055425643921,0
11.857055425643921,0
11.857055425643921,0
11.859060049057007,3
11.859060049057007,0
11.859060049057007,0
11.859060049057007,0
11.859060049057007,1
11.859060049057007,0
11.948651790618896,0
11.948651790618896,0
11.948651790618896,0
11.948651790618896,0
11.948651790618896,0
11.948651790618896,0
11.948651790618896,0
11.948651790618896,0
11.948651790618896,0
11.948651790618896,0
12.04366397857666,0
12.04366397857666,0
12.04366397857666,0
12.04366397857666,0
12.04366397857666,0
12.04366397857666,0
12.04366397857666,5
12.04366397857666,0
12.04366397857666,0
12.12276315689087,0
12.138703346252441,0
12.138703346252441,0
12.138703346252441,0
12.138703346252441,0
12.138703346252441,0
12.138703346252441,0
12.138703346252441,0
12.138703346252441,3
12.218064785003662,0
12.218064785003662,0
12.23322868347168,0
12.23322868347168,3
12.23322868347168,2
12.23322868347168,0
12.23322868347168,0
12.23322868347168,0
12.23322868347168,3
12.31343126296997,0
12.31343126296997,5
12.31343126296997,2
12.31343126296997,16
12.31343126296997,0
12.31343126296997,0
12.31343126296997,9
12.31343126296997,2
12.31343126296997,0
12.408383846282959,0
12.408383846282959,15
12.408383846282959,31
12.408383846282959,2
12.408383846282959,13
12.408383846282959,2
12.408383846282959,9
12.408383846282959,6
12.408383846282959,0
12.408383846282959,0
12.503937721252441,33
12.503937721252441,16
12.503937721252441,0
12.503937721252441,5
12.503937721252441,0
12.503937721252441,7
12.503937721252441,0
12.503937721252441,2
12.503937721252441,0
12.60573673248291,0
12.60573673248291,6
12.60573673248291,0
12.60573673248291,0
12.60573673248291,8
12.60573673248291,0
12.60573673248291,0
12.60573673248291,1
12.60573673248291,0
12.700960874557495,15
12.700960874557495,7
12.700960874557495,0
12.700960874557495,4
12.700960874557495,0
12.700960874557495,0
12.700960874557495,0
12.700960874557495,4
12.700960874557495,0
12.796695470809937,0
12.796695470809937,1
12.796695470809937,7
12.796695470809937,2
12.796695470809937,4
12.796695470809937,43
12.796695470809937,0
12.796695470809937,7
12.796695470809937,0
12.796695470809937,0
12.885565757751465,20
12.885565757751465,11
12.885565757751465,26
12.885565757751465,45
12.885565757751465,0
12.885565757751465,21
12.885565757751465,1
12.885565757751465,1
12.885565757751465,24
12.982968807220459,0
12.982968807220459,9
12.982968807220459,0
12.982968807220459,21
12.982968807220459,14
12.982968807220459,14
12.982968807220459,16
12.982968807220459,9
12.982968807220459,15
13.076804637908936,0
13.076804637908936,0
13.076804637908936,11
13.076804637908936,36
13.076804637908936,14
13.076804637908936,6
13.076804637908936,24
13.076804637908936,13
13.076804637908936,14
13.156848907470703,13
13.156848907470703,5
13.156848907470703,0
13.156848907470703,28
13.156848907470703,47
13.156848907470703,8
13.156848907470703,2
13.156848907470703,0
13.156848907470703,19
13.25623369216919,32
13.25623369216919,19
13.25623369216919,21
13.25623369216919,13
13.25623369216919,0
13.25623369216919,23
13.25623369216919,1
13.25623369216919,2
13.25623369216919,4
13.25623369216919,0
13.356776475906372,36
13.356776475906372,0
13.356776475906372,17
13.356776475906372,0
13.356776475906372,0
13.356776475906372,0
13.356776475906372,14
13.356776475906372,4
13.356776475906372,20
13.444208145141602,0
13.444208145141602,0
13.444208145141602,16
13.444208145141602,0
13.444208145141602,18
13.444208145141602,22
13.444208145141602,0
13.444208145141602,11
13.444208145141602,7
13.549399614334106,15
13.549399614334106,0
13.549399614334106,0
13.549399614334106,0
13.549399614334106,0
13.549399614334106,0
13.549399614334106,0
13.549399614334106,1
13.549399614334106,0
13.549399614334106,14
13.634537935256958,1
13.634537935256958,0
13.634537935256958,0
13.634537935256958,6
13.634537935256958,10
13.634537935256958,0
13.634537935256958,5
13.634537935256958,0
13.634537935256958,20
13.730673551559448,0
13.730673551559448,1
13.730673551559448,0
13.730673551559448,0
13.730673551559448,0
13.730673551559448,0
13.730673551559448,0
13.730673551559448,0
13.730673551559448,0
13.82586121559143,12
13.82586121559143,0
13.82586121559143,0
13.82586121559143,10
13.82586121559143,7
13.82586121559143,0
13.82586121559143,0
13.82586121559143,13
13.82586121559143,0
13.82586121559143,4
13.931571960449219,4
13.931571960449219,1
13.931571960449219,0
13.933576583862305,0
13.933576583862305,0
13.933576583862305,0
13.933576583862305,0
13.933576583862305,0
13.933576583862305,0
14.017121315002441,0
14.017121315002441,0
14.017121315002441,0
14.017121315002441,0
14.017121315002441,5
14.017121315002441,20
14.017121315002441,1
14.017121315002441,1
14.017121315002441,2
14.017121315002441,7
14.128801345825195,0
14.128801345825195,0
14.128801345825195,0
14.128801345825195,0
14.128801345825195,0
14.128801345825195,10
14.128801345825195,0
14.128801345825195,0
14.128801345825195,0
14.128801345825195,0
14.224148035049438,0
14.224148035049438,0
14.224148035049438,0
14.224148035049438,0
14.224148035049438,0
14.224148035049438,0
14.224148035049438,16
14.224148035049438,1
14.224148035049438,0
14.3193199634552,4
14.3193199634552,0
14.3193199634552,20
14.3193199634552,2
14.3193199634552,0
14.3193199634552,0
14.3193199634552,1
14.3193199634552,17
14.3193199634552,6
14.3193199634552,2
14.414766550064087,3
14.414766550064087,0
14.414766550064087,36
14.414766550064087,0
14.414766550064087,23
14.414766550064087,61
14.414766550064087,41
14.414766550064087,22
14.414766550064087,13
14.510938882827759,0
14.510938882827759,10
14.510938882827759,0
14.510938882827759,17
14.510938882827759,1
14.510938882827759,0
14.510938882827759,0
14.510938882827759,1
14.510938882827759,0
14.510938882827759,0
14.606605291366577,0
14.606605291366577,3
14.606605291366577,7
14.606605291366577,0
14.606605291366577,2
14.606605291366577,3
14.606605291366577,0
14.606605291366577,0
14.606605291366577,12
14.606605291366577,0
14.718135118484497,0
14.718135118484497,0
14.718135118484497,0
14.718135118484497,0
14.718135118484497,0
14.718135118484497,8
14.718135118484497,0
14.718135118484497,0
14.718135118484497,0
14.718135118484497,0
14.813548803329468,7
14.813548803329468,0
14.813548803329468,12
14.813548803329468,0
14.813548803329468,0
14.813548803329468,6
14.813548803329468,0
14.813548803329468,0
14.813548803329468,0
14.916987180709839,0
14.916987180709839,3
14.916987180709839,0
14.916987180709839,0
14.916987180709839,2
14.916987180709839,0
14.916987180709839,0
14.916987180709839,0
14.916987180709839,0
14.916987180709839,0
15.004703521728516,0
15.004703521728516,0
15.004703521728516,0
15.004703521728516,0
15.004703521728516,1
15.004703521728516,0
15.004703521728516,1
15.004703521728516,0
15.004703521728516,0
15.105042695999146,4
15.105042695999146,0
15.105042695999146,0
15.105042695999146,0
15.105042695999146,0
15.105042695999146,0
15.105042695999146,0
15.105042695999146,0
15.105042695999146,0
15.196918725967407,0
15.196918725967407,1
15.196918725967407,0
15.196918725967407,0
15.196918725967407,0
15.196918725967407,3
15.196918725967407,0
15.196918725967407,0
15.196918725967407,0
15.196918725967407,2
15.29261827468872,0
15.29261827468872,0
15.29261827468872,0
15.29261827468872,0
15.29261827468872,0
15.29261827468872,0
15.29261827468872,0
15.29261827468872,11
15.29261827468872,0
15.388799905776978,0
15.388799905776978,0
15.388799905776978,0
15.388799905776978,0
15.388799905776978,0
15.388799905776978,0
15.388799905776978,0
15.388799905776978,0
15.388799905776978,0
15.484041929244995,0
15.484041929244995,1
15.484041929244995,0
15.484041929244995,2
15.484041929244995,0
15.484041929244995,9
15.484041929244995,0
15.484041929244995,0
15.484041929244995,0
15.484041929244995,4
15.578311204910278,1
15.578311204910278,0
15.578311204910278,0
15.578311204910278,0
15.578311204910278,0
15.578311204910278,0
15.578311204910278,0
15.578311204910278,0
15.578311204910278,0
15.67677092552185,0
15.67677092552185,0
15.67677092552185,0
15.67677092552185,0
15.67677092552185,0
15.67677092552185,0
15.67677092552185,0
15.67677092552185,0
15.67677092552185,0
15.67677092552185,0
15.771806240081787,2
15.771806240081787,8
15.771806240081787,0
15.771806240081787,0
15.771806240081787,0
15.771806240081787,0
15.771806240081787,0
15.771806240081787,0
15.771806240081787,0
15.877526998519897,12
15.877526998519897,0
15.877526998519897,0
15.877526998519897,0
15.877526998519897,0
15.877526998519897,0
15.877526998519897,0
15.877526998519897,0
15.877526998519897,0
15.877526998519897,0
15.980815887451172,2
15.980815887451172,10
15.980815887451172,5
15.980815887451172,0
15.980815887451172,3
15.980815887451172,0
15.980815887451172,0
15.980815887451172,0
15.980815887451172,0
15.980815887451172,0
15.980815887451172,5
16.0697762966156,0
16.0697762966156,2
16.0697762966156,11
16.0697762966156,6
16.0697762966156,18
16.0697762966156,0
16.0697762966156,0
16.0697762966156,14
16.0697762966156,34
16.182065725326538,78
16.182065725326538,6
16.182065725326538,0
16.182065725326538,25
16.182065725326538,0
16.182065725326538,46
16.182065725326538,29
16.182065725326538,32
16.182065725326538,85
16.182065725326538,123
16.281967401504517,92
16.281967401504517,35
16.281967401504517,140
16.281967401504517,34
16.281967401504517,14
16.281967401504517,10
16.281967401504517,9
16.281967401504517,22
16.281967401504517,77
16.281967401504517,3
16.37313961982727,7
16.37313961982727,0
16.37313961982727,0
16.37313961982727,13
16.37313961982727,0
16.37313961982727,0
16.37313961982727,0
16.37313961982727,0
16.37313961982727,0
16.37313961982727,4
16.473296880722046,3
16.473296880722046,0
16.473296880722046,0
16.473296880722046,0
16.473296880722046,4
16.473296880722046,10
16.473296880722046,0
16.473296880722046,2
16.473296880722046,0
16.57303214073181,1
16.57303214073181,4
16.57303214073181,10
16.57303214073181,0
16.57303214073181,0
16.57303214073181,0
16.57303214073181,0
16.57303214073181,0
16.57303214073181,0
16.57303214073181,0
16.670089960098267,12
16.670089960098267,0
16.670089960098267,0
16.670089960098267,79
16.670089960098267,57
16.670089960098267,85
16.670089960098267,30
16.670089960098267,13
16.670089960098267,3
16.754417419433594,0
16.754417419433594,25
16.754417419433594,0
16.754417419433594,4
16.754417419433594,30
16.754417419433594,31
16.754417419433594,13
16.754417419433594,15
16.754417419433594,6
16.86245608329773,6
16.86245608329773,1
16.86245608329773,0
16.86245608329773,0
16.86245608329773,131
16.86245608329773,94
16.86245608329773,234
16.864461421966553,122
16.864461421966553,456
16.864461421966553,27
16.96061062812805,65
16.96061062812805,60
16.96061062812805,31
16.96061062812805,14
16.96061062812805,35
16.96061062812805,16
16.96061062812805,225
16.96061062812805,251
16.96061062812805,350
16.96061062812805,21
17.05589485168457,387
17.05589485168457,200
17.05589485168457,74
17.05589485168457,85
17.05589485168457,2
17.05589485168457,400
17.05589485168457,17
17.05589485168457,145
17.05589485168457,502
17.155147314071655,1023
17.155147314071655,397
17.155147314071655,369
17.155147314071655,104
17.155147314071655,107
17.155147314071655,53
17.155147314071655,11
17.155147314071655,0
17.155147314071655,587
17.155147314071655,73
17.25025224685669,121
17.25025224685669,218
17.25025224685669,48
17.25025224685669,132
17.25025224685669,55
17.25025224685669,381
17.25025224685669,245
17.25025224685669,247
17.25025224685669,397
17.34202480316162,494
17.34202480316162,129
17.34202480316162,21
17.34202480316162,49
17.34202480316162,55
17.34202480316162,137
17.34202480316162,318
17.34202480316162,274
17.34202480316162,189
17.437214374542236,23
17.437214374542236,27
17.437214374542236,15
17.437214374542236,77
17.437214374542236,863
17.437214374542236,206
17.437214374542236,462
17.437214374542236,55
17.437214374542236,151
17.437214374542236,439
17.531371593475342,89
17.531371593475342,1023
17.531371593475342,169
17.531371593475342,0
17.531371593475342,118
17.531371593475342,333
17.531371593475342,32
17.531371593475342,31
17.531371593475342,914
17.6278977394104,124
17.6278977394104,38
17.6278977394104,15
17.6278977394104,77
17.6278977394104,229
17.6278977394104,72
17.6278977394104,60
17.6278977394104,125
17.6278977394104,250
17.721916913986206,590
17.721916913986206,30
17.721916913986206,37
17.721916913986206,262
17.721916913986206,238
17.721916913986206,1023
17.721916913986206,396
17.721916913986206,329
17.721916913986206,2
17.721916913986206,48
17.81766939163208,604
17.81766939163208,362
17.81766939163208,965
17.81766939163208,306
17.81766939163208,74
17.81766939163208,186
17.833852767944336,174
17.833852767944336,142
17.833852767944336,67
17.833852767944336,336
17.929436206817627,114
17.929436206817627,342
17.929436206817627,188
17.929436206817627,138
17.929436206817627,687
17.929436206817627,5
17.929436206817627,68
17.929436206817627,143
17.929436206817627,399
17.929436206817627,115
18.02682065963745,184
18.02682065963745,503
18.02682065963745,288
18.02682065963745,84
18.02682065963745,91
18.02682065963745,72
18.02682065963745,244
18.02682065963745,382
18.02682065963745,321
18.121336460113525,70
18.121336460113525,156
18.121336460113525,224
18.121336460113525,93
18.121336460113525,212
18.121336460113525,692
18.121336460113525,345
18.121336460113525,35
18.121336460113525,116
18.121336460113525,237
18.232856035232544,9
18.232856035232544,51
18.232856035232544,33
18.232856035232544,19
18.232856035232544,66
18.232856035232544,131
18.232856035232544,12
18.232856035232544,461
18.232856035232544,284
18.232856035232544,87
18.328943967819214,426
18.328943967819214,199
18.328943967819214,851
18.328943967819214,530
18.328943967819214,26
18.328943967819214,288
18.328943967819214,19
18.328943967819214,117
18.328943967819214,119
18.328943967819214,6
18.424582958221436,106
18.424582958221436,720
18.424582958221436,98
18.424582958221436,320
18.424582958221436,8
18.424582958221436,184
18.424582958221436,273
18.424582958221436,142
18.424582958221436,11
18.53203010559082,192
18.53203010559082,37
18.53203010559082,72
18.53403639793396,314
18.53403639793396,365
18.53403639793396,632
18.53403639793396,8
18.53403639793396,474
18.53403639793396,100
18.53403639793396,203
18.631357192993164,292
18.631357192993164,750
18.631357192993164,164
18.631357192993164,406
18.631357192993164,72
18.631357192993164,19
18.631357192993164,32
18.631357192993164,169
18.631357192993164,71
18.631357192993164,318
18.72645354270935,325
18.72645354270935,224
18.72645354270935,370
18.72645354270935,176
18.72645354270935,860
18.72645354270935,423
18.72645354270935,220
18.72645354270935,293
18.72645354270935,148
18.821659326553345,161
18.821659326553345,98
18.821659326553345,511
18.821659326553345,4
18.821659326553345,106
18.821659326553345,537
18.821659326553345,685
18.821659326553345,143
18.821659326553345,301
18.821659326553345,220
18.919031858444214,259
18.919031858444214,158
18.919031858444214,68
18.919031858444214,197
18.919031858444214,143
18.919031858444214,75
18.919031858444214,132
18.919031858444214,11
18.919031858444214,149
19.012662887573242,425
19.012662887573242,29
19.012662887573242,62
19.012662887573242,73
19.012662887573242,411
19.012662887573242,103
19.012662887573242,33
19.012662887573242,205
19.012662887573242,824
19.012662887573242,132
19.107872486114502,72
19.107872486114502,142
19.107872486114502,372
19.107872486114502,0
19.107872486114502,162
19.107872486114502,126
19.107872486114502,371
19.107872486114502,27
19.107872486114502,345
19.2030930519104,438
19.2030930519104,99
19.2030930519104,168
19.2030930519104,24
19.2030930519104,0
19.2030930519104,0
19.2030930519104,178
19.2030930519104,69
19.2030930519104,321
19.2030930519104,96
19.3136785030365,257
19.3136785030365,792
19.3136785030365,455
19.3136785030365,608
19.3136785030365,64
19.3136785030365,290
19.3136785030365,79
19.3136785030365,274
19.3136785030365,535
19.3136785030365,9
19.424339771270752,1023
19.424339771270752,12
19.424339771270752,43
19.424339771270752,105
19.424339771270752,96
19.424339771270752,378
19.424339771270752,762
19.424339771270752,253
19.424339771270752,85
19.424339771270752,490
19.424339771270752,515
19.546257257461548,120
19.546257257461548,162
19.546257257461548,55
19.546257257461548,44
19.546257257461548,114
19.546257257461548,480
19.546257257461548,73
19.546257257461548,532
19.546257257461548,276
19.546257257461548,78
19.546257257461548,516
19.646986484527588,213
19.646986484527588,133
19.646986484527588,381
19.646986484527588,114
19.646986484527588,168
19.646986484527588,185
19.646986484527588,287
19.646986484527588,108
19.646986484527588,198
19.646986484527588,142
19.756802320480347,426
19.756802320480347,5
19.756802320480347,196
19.756802320480347,178
19.756802320480347,170
19.756802320480347,201
19.756802320480347,177
19.756802320480347,27
19.756802320480347,8
19.756802320480347,156
19.756802320480347,451
19.862199544906616,657
19.862199544906616,377
19.862199544906616,158
19.862199544906616,136
19.862199544906616,271
19.862199544906616,21
19.862199544906616,114
19.862199544906616,91
19.862199544906616,32
19.862199544906616,42
19.958171129226685,616
19.958171129226685,24
19.958171129226685,15
19.958171129226685,350
19.958171129226685,295
19.958171129226685,190
19.958171129226685,477
19.958171129226685,30
19.958171129226685,289
20.053835153579712,197
20.053835153579712,199
20.053835153579712,80
20.053835153579712,261
20.053835153579712,66
20.053835153579712,385
20.053835153579712,171
20.053835153579712,164
20.053835153579712,115
20.13865065574646,368
20.13865065574646,937
20.13865065574646,203
20.13865065574646,1
20.13865065574646,37
20.13865065574646,38
20.13865065574646,22
20.149048328399658,37
20.149048328399658,0
20.149048328399658,27
20.234169244766235,38
20.234169244766235,0
20.234169244766235,11
20.234169244766235,0
20.234169244766235,3
20.234169244766235,5
20.234169244766235,98
20.234169244766235,279
20.234169244766235,91
20.331759929656982,430
20.331759929656982,366
20.331759929656982,327
20.331759929656982,152
20.331759929656982,483
20.331759929656982,31
20.331759929656982,46
20.331759929656982,87
20.331759929656982,185
20.331759929656982,848
20.443273305892944,78
20.443273305892944,89
20.443273305892944,326
20.443273305892944,510
20.443273305892944,29
20.44527769088745,239
20.44527769088745,70
20.44527769088745,230
20.44527769088745,141
20.44527769088745,49
20.54344940185547,386
20.54344940185547,62
20.54344940185547,200
20.54344940185547,487
20.54344940185547,4
20.54344940185547,26
20.54344940185547,85
20.54344940185547,7
20.54344940185547,22
20.632648706436157,28
20.632648706436157,125
20.632648706436157,31
20.632648706436157,58
20.632648706436157,1
20.632648706436157,120
20.632648706436157,98
20.632648706436157,82
20.632648706436157,115
20.632648706436157,38
20.74581742286682,188
20.74581742286682,91
20.74581742286682,55
20.74581742286682,156
20.74581742286682,178
20.74581742286682,66
20.74581742286682,5
20.74581742286682,52
20.74581742286682,155
20.74581742286682,28
20.85118556022644,125
20.85118556022644,131
20.85118556022644,11
20.85118556022644,307
20.85118556022644,192
20.85118556022644,23
20.85118556022644,11
20.85118556022644,21
20.85118556022644,0
20.85118556022644,227
20.85118556022644,22
20.95143747329712,24
20.95143747329712,5
20.95143747329712,5
20.95143747329712,14
20.95143747329712,17
20.95143747329712,7
20.95143747329712,2
20.95143747329712,113
20.95143747329712,157
21.046764612197876,73
21.046764612197876,71
21.046764612197876,6
21.046764612197876,20
21.046764612197876,3
21.046764612197876,2
21.046764612197876,2
21.046764612197876,5
21.046764612197876,0
21.046764612197876,7
21.15260887145996,4
21.15260887145996,9
21.15260887145996,4
21.15260887145996,4
21.15260887145996,8
21.15260887145996,0
21.15260887145996,24
21.15260887145996,0
21.15260887145996,2
21.15260887145996,0
21.15260887145996,2
21.253130435943604,11
21.253130435943604,7
21.253130435943604,0
21.253130435943604,12
21.253130435943604,14
21.253130435943604,10
21.253130435943604,0
21.253130435943604,10
21.253130435943604,0
21.349235773086548,6
21.349235773086548,30
21.349235773086548,1
21.349235773086548,0
21.349235773086548,3
21.349235773086548,0
21.349235773086548,3
21.349235773086548,0
21.349235773086548,6
21.349235773086548,16
21.455548524856567,1
21.455548524856567,41
21.455548524856567,4
21.455548524856567,0
21.455548524856567,8
21.455548524856567,0
21.455548524856567,3
21.455548524856567,3
21.455548524856567,0
21.455548524856567,0
21.55565309524536,0
21.55565309524536,0
21.55565309524536,0
21.55565309524536,0
21.55565309524536,1
21.55565309524536,0
21.55565309524536,0
21.55565309524536,7
21.55565309524536,0
21.55565309524536,2
21.65157914161682,0
21.65157914161682,13
21.65157914161682,0
21.65157914161682,2
21.65157914161682,0
21.65157914161682,0
21.65157914161682,57
21.65157914161682,1
21.65157914161682,0
21.65157914161682,1
21.763208627700806,0
21.763208627700806,0
21.763208627700806,0
21.763208627700806,0
21.763208627700806,0
21.763208627700806,0
21.763208627700806,0
21.763208627700806,10
21.763208627700806,1
21.763208627700806,0
21.85334300994873,0
21.85847806930542,0
21.85847806930542,20
21.85847806930542,0
21.85847806930542,0
21.85847806930542,8
21.85847806930542,0
21.85847806930542,30
21.85847806930542,6
21.951915979385376,0
21.951915979385376,9
21.951915979385376,26
21.951915979385376,9
21.951915979385376,1
21.951915979385376,3
21.951915979385376,0
21.951915979385376,37
21.951915979385376,16
21.951915979385376,0
22.033380270004272,3
22.033380270004272,0
22.033380270004272,4
22.033380270004272,0
22.033380270004272,0
22.033380270004272,2
22.033380270004272,6
22.033380270004272,0
22.033380270004272,10
22.129263162612915,0
22.129263162612915,0
22.129263162612915,0
22.129263162612915,1
22.129263162612915,94
22.129263162612915,27
22.129263162612915,5
22.129263162612915,4
22.129263162612915,12
22.224023580551147,0
22.224023580551147,0
22.224023580551147,0
22.224023580551147,0
22.224023580551147,0
22.224023580551147,0
22.224023580551147,10
22.224023580551147,0
22.224023580551147,0
22.224023580551147,0
22.3376727104187,0
22.3376727104187,0
22.3376727104187,0
22.3376727104187,5
22.3376727104187,0
22.3376727104187,0
22.3376727104187,0
22.3376727104187,0
22.3376727104187,0
22.33864426612854,0
22.43170738220215,0
22.43170738220215,7
22.43170738220215,0
22.43170738220215,24
22.43170738220215,0
22.43170738220215,1
22.43170738220215,0
22.43170738220215,7
22.43170738220215,0
22.533576726913452,1
22.533576726913452,0
22.533576726913452,15
22.533576726913452,1
22.533576726913452,0
22.533576726913452,1
22.533576726913452,2
22.533576726913452,0
22.533576726913452,12
22.533576726913452,0
22.622990369796753,8
22.622990369796753,2
22.622990369796753,0
22.622990369796753,0
22.622990369796753,1
22.622990369796753,0
22.622990369796753,0
22.622990369796753,0
22.622990369796753,0
22.622990369796753,0
22.718229055404663,0
22.718229055404663,0
22.718229055404663,5
22.718229055404663,0
22.718229055404663,0
22.718229055404663,0
22.718229055404663,0
22.718229055404663,0
22.718229055404663,0
22.828662633895874,0
22.828662633895874,0
22.828662633895874,1
22.828662633895874,0
22.828662633895874,0
22.828662633895874,3
22.828662633895874,0
22.828662633895874,0
22.828662633895874,0
22.828662633895874,7
22.924145460128784,0
22.924145460128784,0
22.924145460128784,0
22.924145460128784,0
22.924145460128784,7
22.924145460128784,0
22.924145460128784,6
22.924145460128784,0
22.924145460128784,1
22.924145460128784,0
23.03508424758911,5
23.03508424758911,1
23.03508424758911,14
23.03508424758911,1
23.03508424758911,6
23.03508424758911,3
23.03508424758911,1
23.03508424758911,12
23.03508424758911,3
23.03508424758911,1
23.13102078437805,9
23.13102078437805,0
23.13102078437805,7
23.13102078437805,1
23.13102078437805,0
23.13102078437805,0
23.13102078437805,6
23.13102078437805,0
23.13102078437805,3
23.13102078437805,2
23.22678518295288,3
23.22678518295288,0
23.22678518295288,1
23.22678518295288,0
23.22678518295288,9
23.22678518295288,0
23.22678518295288,0
23.22678518295288,1
23.22678518295288,0
23.22678518295288,0
23.325594902038574,0
23.325594902038574,0
23.325594902038574,0
23.325594902038574,0
23.325594902038574,0
23.325594902038574,0
23.325594902038574,0
23.325594902038574,0
23.325594902038574,0
23.402334928512573,1
23.402334928512573,0
23.41845703125,0
23.41845703125,3
23.41845703125,6
23.41845703125,0
23.41845703125,2
23.41845703125,0
23.41845703125,0
23.509939670562744,9
23.509939670562744,0
23.509939670562744,0
23.509939670562744,0
23.509939670562744,1
23.509939670562744,0
23.509939670562744,0
23.509939670562744,1
23.509939670562744,0
23.59376049041748,3
23.59376049041748,2
23.59376049041748,5
23.59376049041748,2
23.59376049041748,11
23.59376049041748,0
23.59376049041748,8
23.59376049041748,0
23.59376049041748,2
23.694151878356934,0
23.694151878356934,5
23.694151878356934,0
23.694151878356934,6
23.694151878356934,4
23.694151878356934,2
23.694151878356934,5
23.694151878356934,1
23.694151878356934,1
23.78519916534424,5
23.78519916534424,0
23.78519916534424,0
23.78519916534424,0
23.78519916534424,2
23.78519916534424,0
23.78519916534424,0
23.78519916534424,0
23.78519916534424,3
23.78519916534424,7
23.880638360977173,0
23.880638360977173,0
23.880638360977173,0
23.880638360977173,0
23.880638360977173,0
23.880638360977173,0
23.880638360977173,0
23.880638360977173,0
23.880638360977173,0
23.97515296936035,1
23.97515296936035,0
23.97515296936035,0
23.97515296936035,0
23.97515296936035,6
23.97515296936035,0
23.97515296936035,0
23.97515296936035,0
23.97515296936035,0
23.97515296936035,0
24.0708110332489,0
24.0708110332489,0
24.0708110332489,1
24.0708110332489,0
24.0708110332489,0
24.0708110332489,0
24.0708110332489,0
24.0708110332489,0
24.0708110332489,0
24.166645765304565,0
24.166645765304565,1
24.166645765304565,0
24.166645765304565,5
24.166645765304565,0
24.166645765304565,10
24.166645765304565,0
24.166645765304565,8
24.166645765304565,8
24.166645765304565,1
24.27416682243347,0
24.27416682243347,1
24.27416682243347,0
24.27416682243347,6
24.27416682243347,2
24.27416682243347,7
24.27416682243347,3
24.27416682243347,9
24.27416682243347,3
24.357641220092773,4
24.357641220092773,0
24.357641220092773,7
24.357641220092773,0
24.357641220092773,1
24.357641220092773,0
24.357641220092773,4
24.357641220092773,0
24.357641220092773,0
24.461395263671875,0
24.461395263671875,1
24.461395263671875,0
24.461395263671875,0
24.461395263671875,0
24.461395263671875,0
24.461395263671875,0
24.461395263671875,0
24.461395263671875,0
24.461395263671875,0
24.55679154396057,0
24.55679154396057,0
24.55679154396057,0
24.55679154396057,0
24.55679154396057,0
24.55679154396057,0
24.55679154396057,0
24.55679154396057,0
24.55679154396057,0
24.643879652023315,5
24.643879652023315,0
24.643879652023315,15
24.643879652023315,0
24.643879652023315,7
24.643879652023315,0
24.643879652023315,0
24.643879652023315,0
24.643879652023315,0
24.73846983909607,5
24.73846983909607,6
24.73846983909607,7
24.73846983909607,0
24.73846983909607,0
24.73846983909607,0
24.73846983909607,2
24.73846983909607,10
24.73846983909607,0
24.833335876464844,2
24.833335876464844,5
24.833335876464844,0
24.833335876464844,6
24.833335876464844,27
24.833335876464844,32
24.833335876464844,75
24.833335876464844,55
24.833335876464844,0
24.833335876464844,12
24.936214685440063,0
24.936214685440063,14
24.936214685440063,0
24.936214685440063,0
24.936214685440063,13
24.936214685440063,8
24.936214685440063,0
24.936214685440063,1
24.936214685440063,31
25.02418613433838,33
25.02418613433838,10
25.02418613433838,5
25.02418613433838,32
25.02418613433838,64
25.02418613433838,23
25.02418613433838,0
25.02418613433838,7
25.02418613433838,6
25.02418613433838,0
25.119002103805542,0
25.119002103805542,8
25.119002103805542,39
25.119002103805542,0
25.119002103805542,0
25.119002103805542,0
25.119002103805542,0
25.119002103805542,0
25.119002103805542,0
25.22662878036499,0
25.22662878036499,8
25.22662878036499,25
25.22662878036499,17
25.22662878036499,4
25.22662878036499,0
25.22662878036499,5
25.22662878036499,20
25.22662878036499,5
25.22662878036499,0
25.325732707977295,19
25.325732707977295,0
25.325732707977295,1
25.325732707977295,0
25.325732707977295,3
25.325732707977295,0
25.325732707977295,6
25.325732707977295,0
25.325732707977295,2
25.325732707977295,0
25.421254873275757,7
25.421254873275757,0
25.421254873275757,16
25.421254873275757,0
25.421254873275757,15
25.421254873275757,1
25.421254873275757,6
25.421254873275757,0
25.421254873275757,5
25.516642808914185,9
25.516642808914185,14
25.516642808914185,15
25.516642808914185,12
25.516642808914185,0
25.516642808914185,5
25.516642808914185,0
25.516642808914185,2
25.516642808914185,0
25.516642808914185,2
25.628586769104004,0
25.628586769104004,0
25.628586769104004,0
25.628586769104004,10
25.628586769104004,3
25.628586769104004,0
25.628586769104004,35
25.628586769104004,2
25.628586769104004,0
25.628586769104004,0
25.728139877319336,0
25.728139877319336,0
25.728139877319336,0
25.728139877319336,0
25.728139877319336,5
25.728139877319336,2
25.728139877319336,0
25.728139877319336,0
25.728139877319336,0
25.728139877319336,1
25.82125735282898,0
25.82125735282898,0
25.82125735282898,1
25.82125735282898,0
25.82125735282898,0
25.82125735282898,4
25.82125735282898,9
25.82125735282898,0
25.82125735282898,0
25.82125735282898,1
25.914318561553955,5
25.914318561553955,0
25.914318561553955,1
25.914318561553955,0
25.914318561553955,2
25.914318561553955,1
25.930195093154907,0
25.930195093154907,0
25.930195093154907,0
25.930195093154907,4
26.025787830352783,0
26.025787830352783,0
26.025787830352783,0
26.025787830352783,0
26.025787830352783,11
26.025787830352783,5
26.025787830352783,4
26.025787830352783,0
26.025787830352783,0
26.1259605884552,0
26.1259605884552,6
26.1259605884552,0
26.1259605884552,0
26.1259605884552,11
26.1259605884552,0
26.1259605884552,36
26.1259605884552,148
26.1259605884552,21
26.127965688705444,33
26.21778964996338,6
26.21778964996338,11
26.21778964996338,14
26.21778964996338,1
26.21778964996338,0
26.21778964996338,0
26.21778964996338,1
26.21778964996338,50
26.21778964996338,42
26.316396236419678,203
26.316396236419678,14
26.316396236419678,18
26.316396236419678,8
26.316396236419678,0
26.316396236419678,0
26.316396236419678,0
26.316396236419678,0
26.316396236419678,1
26.316396236419678,2
26.409196853637695,78
26.409196853637695,50
26.409196853637695,44
26.409196853637695,22
26.409196853637695,2
26.409196853637695,0
26.409196853637695,4
26.409196853637695,0
26.409196853637695,238
26.512633323669434,210
26.512633323669434,85
26.512633323669434,99
26.512633323669434,114
26.512633323669434,32
26.512633323669434,7
26.512633323669434,0
26.512633323669434,0
26.512633323669434,0
26.512633323669434,158
26.608874082565308,7
26.608874082565308,107
26.608874082565308,121
26.608874082565308,44
26.608874082565308,9
26.608874082565308,176
26.608874082565308,7
26.608874082565308,31
26.61087942123413,78
26.703415870666504,66
26.703415870666504,42
26.703415870666504,478
26.703415870666504,447
26.703415870666504,296
26.703415870666504,562
26.703415870666504,82
26.703415870666504,14
26.703415870666504,171
26.796969890594482,347
26.796969890594482,175
26.796969890594482,164
26.796969890594482,223
26.796969890594482,173
26.796969890594482,185
26.796969890594482,150
26.796969890594482,50
26.796969890594482,63
26.796969890594482,10
26.891315460205078,6
26.891315460205078,2
26.891315460205078,0
26.891315460205078,115
26.891315460205078,132
26.891315460205078,693
26.891315460205078,130
26.891315460205078,118
26.891315460205078,367
26.980089902877808,63
26.980089902877808,128
26.980089902877808,142
26.980089902877808,90
26.980089902877808,5
26.980089902877808,42
26.980089902877808,712
26.980089902877808,1
26.980089902877808,84
27.075504541397095,61
27.075504541397095,687
27.075504541397095,262
27.075504541397095,448
27.075504541397095,150
27.075504541397095,489
27.075504541397095,286
27.075504541397095,21
27.075504541397095,4
27.18189287185669,166
27.18189287185669,33
27.18189287185669,177
27.18189287185669,33
27.18189287185669,13
27.183898210525513,160
27.183898210525513,13
27.183898210525513,323
27.183898210525513,10
27.183898210525513,119
27.283278703689575,139
27.283278703689575,84
27.283278703689575,69
27.283278703689575,516
27.283278703689575,158
27.283278703689575,460
27.283278703689575,329
27.283278703689575,10
27.283278703689575,61
27.283278703689575,183
27.375319480895996,116
27.375319480895996,0
27.375319480895996,154
27.375319480895996,111
27.375319480895996,329
27.375319480895996,1023
27.375319480895996,619
27.375319480895996,1
27.375319480895996,225
27.375319480895996,207
27.48658800125122,0
27.48658800125122,442
27.48658800125122,173
27.48658800125122,285
27.48658800125122,632
27.48658800125122,167
27.48658800125122,86
27.48658800125122,238
27.48658800125122,1023
27.48658800125122,281
27.587787866592407,58
27.587787866592407,40
27.587787866592407,60
27.587787866592407,315
27.587787866592407,193
27.58979296684265,73
27.58979296684265,59
27.58979296684265,189
27.58979296684265,277
27.58979296684265,517
27.686542749404907,134
27.686542749404907,158
27.686542749404907,42
27.686542749404907,476
27.686542749404907,147
27.686542749404907,497
27.686542749404907,130
27.686542749404907,35
27.686542749404907,137
27.771652698516846,300
27.771652698516846,92
27.771652698516846,16
27.771652698516846,397
27.771652698516846,384
27.771652698516846,337
27.771652698516846,114
27.771652698516846,17
27.771652698516846,115
27.771652698516846,98
27.883169174194336,77
27.883169174194336,97
27.883169174194336,2
27.883169174194336,284
27.883169174194336,2
27.883169174194336,452
27.883169174194336,106
27.883169174194336,135
27.883169174194336,94
27.883169174194336,232
27.979629278182983,138
27.979629278182983,71
27.979629278182983,298
27.979629278182983,436
27.979629278182983,37
27.979629278182983,444
27.979629278182983,223
27.979629278182983,43
27.979629278182983,92
28.07314133644104,204
28.07314133644104,18
28.07314133644104,249
28.07314133644104,127
28.07314133644104,328
28.07314133644104,11
28.07314133644104,89
28.07314133644104,74
28.07314133644104,98
28.07314133644104,270
28.171802520751953,250
28.171802520751953,103
28.171802520751953,248
28.171802520751953,424
28.171802520751953,97
28.171802520751953,126
28.171802520751953,137
28.171802520751953,264
28.171802520751953,210
28.266419172286987,601
28.266419172286987,149
28.266419172286987,82
28.266419172286987,76
28.266419172286987,654
28.266419172286987,206
28.266419172286987,143
28.266419172286987,269
28.266419172286987,143
28.376071214675903,310
28.376071214675903,98
28.376071214675903,279
28.376071214675903,636
28.376071214675903,15
28.376071214675903,260
28.376071214675903,36
28.376071214675903,326
28.376071214675903,105
28.376071214675903,75
28.376071214675903,118
28.46911597251892,158
28.46911597251892,522
28.46911597251892,563
28.46911597251892,203
28.46911597251892,14
28.46911597251892,148
28.46911597251892,656
28.46911597251892,30
28.46911597251892,86
28.568560361862183,12
28.568560361862183,253
28.568560361862183,442
28.568560361862183,30
28.568560361862183,2
28.568560361862183,261
28.568560361862183,358
28.568560361862183,279
28.568560361862183,211
28.65959858894348,438
28.65959858894348,153
28.65959858894348,733
28.65959858894348,491
28.65959858894348,443
28.65959858894348,41
28.65959858894348,149
28.65959858894348,375
28.65959858894348,487
28.65959858894348,73
28.65959858894348,156
28.771096229553223,437
28.771096229553223,113
28.771096229553223,853
28.771096229553223,263
28.771096229553223,438
28.771096229553223,516
28.771096229553223,26
28.771096229553223,179
28.771096229553223,70
28.771096229553223,279
28.86600971221924,368
28.86600971221924,151
28.86600971221924,181
28.86600971221924,327
28.86600971221924,178
28.86600971221924,82
28.86600971221924,262
28.86600971221924,23
28.88191533088684,261
28.88191533088684,367
28.98481273651123,744
28.98481273651123,540
28.98481273651123,166
28.98481273651123,767
28.98481273651123,89
28.98481273651123,0
28.98481273651123,223
28.98481273651123,0
28.986818552017212,606
28.986818552017212,318
29.087178230285645,133
29.087178230285645,81
29.087178230285645,111
29.087178230285645,269
29.087178230285645,171
29.087178230285645,370
29.087178230285645,28
29.087178230285645,291
29.087178230285645,376
29.087178230285645,396
29.182399034500122,95
29.182399034500122,162
29.182399034500122,164
29.182399034500122,133
29.182399034500122,232
29.182399034500122,98
29.182399034500122,149
29.182399034500122,281
29.182399034500122,86
29.182399034500122,505
29.284861087799072,19
29.284861087799072,442
29.284861087799072,66
29.284861087799072,82
29.284861087799072,353
29.284861087799072,11
29.284861087799072,234
29.284861087799072,297
29.284861087799072,362
29.385966777801514,299
29.385966777801514,67
29.385966777801514,447
29.385966777801514,106
29.385966777801514,21
29.385966777801514,75
29.385966777801514,20
29.385966777801514,23
29.385966777801514,171
29.385966777801514,313
29.484874725341797,39
29.484874725341797,354
29.484874725341797,323
29.484874725341797,36
29.484874725341797,31
29.484874725341797,83
29.484874725341797,138
29.484874725341797,59
29.484874725341797,63
29.484874725341797,100
29.578442096710205,120
29.578442096710205,149
29.578442096710205,906
29.578442096710205,354
29.578442096710205,83
29.578442096710205,51
29.578442096710205,297
29.578442096710205,102
29.578442096710205,281
29.578442096710205,116
29.681987524032593,742
29.681987524032593,251
29.681987524032593,530
29.681987524032593,160
29.681987524032593,214
29.681987524032593,264
29.681987524032593,196
29.681987524032593,108
29.681987524032593,75
29.76804757118225,490
29.76804757118225,56
29.76804757118225,38
29.76804757118225,185
29.76804757118225,758
29.76804757118225,45
29.76804757118225,80
29.76804757118225,15
29.76804757118225,41
29.76804757118225,81
29.873398303985596,238
29.873398303985596,328
29.873398303985596,284
29.873398303985596,194
29.873398303985596,357
29.873398303985596,25
29.873398303985596,770
29.873398303985596,197
29.873398303985596,253
29.969766855239868,31
29.969766855239868,135
29.969766855239868,73
29.969766855239868,441
29.969766855239868,32
29.969766855239868,292
29.969766855239868,101
29.969766855239868,401
29.969766855239868,392
30.061779260635376,108
30.061779260635376,219
30.061779260635376,33
30.061779260635376,59
30.061779260635376,617
30.061779260635376,96
30.061779260635376,120
30.061779260635376,32
30.061779260635376,105
30.15832543373108,358
30.15832543373108,12
30.15832543373108,181
30.15832543373108,76
30.15832543373108,465
30.15832543373108,15
30.15832543373108,892
30.15832543373108,47
30.15832543373108,186
30.15832543373108,195
30.254443168640137,97
30.254443168640137,13
30.254443168640137,237
30.254443168640137,354
30.254443168640137,37
30.254443168640137,99
30.254443168640137,33
30.254443168640137,13
30.254443168640137,35
30.349149703979492,2
30.349149703979492,15
30.349149703979492,32
30.35089635848999,2
30.35089635848999,0
30.35089635848999,4
30.35089635848999,24
30.35089635848999,422
30.35089635848999,354
30.44706416130066,327
30.44706416130066,272
30.44706416130066,613
30.44706416130066,340
30.44706416130066,255
30.44706416130066,1023
30.44706416130066,74
30.44706416130066,45
30.44706416130066,39
30.44706416130066,411
30.526350498199463,49
30.526350498199463,219
30.526350498199463,328
30.54207420349121,50
30.54207420349121,325
30.54207420349121,45
30.54207420349121,32
30.54207420349121,166
30.54207420349121,231
30.64577603340149,3
30.64577603340149,77
30.64577603340149,245
30.64577603340149,130
30.64577603340149,69
30.64577603340149,54
30.64577603340149,18
30.64577603340149,0
30.64577603340149,116
30.64577603340149,434
30.750523328781128,87
30.750523328781128,224
30.750523328781128,0
30.750523328781128,45
30.750523328781128,1
30.750523328781128,57
30.750523328781128,2
30.750523328781128,539
30.750523328781128,48
30.750523328781128,39
30.750523328781128,1
30.843841791152954,3
30.843841791152954,123
30.843841791152954,47
30.843841791152954,140
30.843841791152954,85
30.843841791152954,12
30.843841791152954,78
30.843841791152954,112
30.843841791152954,79
30.843841791152954,41
30.954301595687866,28
30.954301595687866,177
30.954301595687866,85
30.954301595687866,60
30.954301595687866,5
30.954301595687866,13
30.954301595687866,18
30.954301595687866,77
30.954301595687866,58
30.954301595687866,26
31.061359882354736,45
31.061359882354736,13
31.061359882354736,111
31.061359882354736,10
31.061359882354736,55
31.061359882354736,47
31.061359882354736,2
31.061359882354736,17
31.061359882354736,0
31.061359882354736,0
31.158376216888428,0
31.158376216888428,0
31.158376216888428,8
31.158376216888428,0
31.158376216888428,0
31.158376216888428,2
31.158376216888428,0
31.158376216888428,1
31.158376216888428,1
31.158376216888428,0
31.251496076583862,21
31.251496076583862,0
31.251496076583862,0
31.251496076583862,0
31.251496076583862,0
31.251496076583862,3
31.251496076583862,7
31.251496076583862,0
31.251496076583862,0
31.334461450576782,0
31.334461450576782,1
31.334461450576782,2
31.334461450576782,66
31.334461450576782,3
31.334461450576782,4
31.334461450576782,0
31.334461450576782,0
31.334461450576782,0
31.442204236984253,0
31.442204236984253,0
31.442204236984253,0
31.442204236984253,0
31.442204236984253,0
31.442204236984253,2
31.442204236984253,10
31.442204236984253,8
31.442204236984253,2
31.442204236984253,0
31.525583267211914,0
31.525583267211914,0
31.525583267211914,0
31.525583267211914,0
31.525583267211914,0
31.525583267211914,1
31.525583267211914,2
31.525583267211914,5
31.525583267211914,6
31.63296627998352,7
31.63296627998352,0
31.63296627998352,0
31.63296627998352,0
31.63296627998352,0
31.63296627998352,0
31.63296627998352,0
31.63296627998352,0
31.63296627998352,0
31.728013515472412,0
31.728013515472412,0
31.728013515472412,0
31.728013515472412,2
31.728013515472412,0
31.728013515472412,0
31.728013515472412,0
31.728013515472412,0
31.728013515472412,0
31.728013515472412,0
31.826354265213013,0
31.826354265213013,0
31.826354265213013,0
31.826354265213013,0
31.826354265213013,0
31.826354265213013,0
31.826354265213013,0
31.826354265213013,0
31.826354265213013,4
31.92046570777893,0
31.92046570777893,0
31.92046570777893,1
31.92046570777893,2
31.92046570777893,0
31.92046570777893,0
31.92046570777893,0
31.92046570777893,0
31.92046570777893,0
31.92046570777893,1
32.01986384391785,0
32.01986384391785,0
32.01986384391785,1
32.01986384391785,0
32.01986384391785,0
32.01986384391785,1
32.01986384391785,0
32.01986384391785,0
32.01986384391785,0
32.110960721969604,0
32.110960721969604,3
32.110960721969604,0
32.110960721969604,0
32.110960721969604,0
32.110960721969604,0
32.110960721969604,0
32.110960721969604,0
32.110960721969604,15
32.110960721969604,0
32.208022356033325,0
32.208022356033325,1
32.208022356033325,0
32.208022356033325,0
32.208022356033325,0
32.208022356033325,0
32.208022356033325,0
32.208022356033325,0
32.208022356033325,0
32.30178236961365,1
32.30178236961365,0
32.30178236961365,1
32.30178236961365,0
32.30178236961365,0
32.30178236961365,0
32.30178236961365,1
32.30178236961365,0
32.30178236961365,0
32.398163080215454,0
32.398163080215454,1
32.398163080215454,3
32.398163080215454,3
32.398163080215454,0
32.398163080215454,0
32.398163080215454,0
32.398163080215454,0
32.398163080215454,0
32.398163080215454,0
32.490525245666504,4
32.490525245666504,4
32.490525245666504,0
32.490525245666504,1
32.490525245666504,0
32.490525245666504,1
32.490525245666504,5
32.490525245666504,5
32.490525245666504,0
32.5937819480896,0
32.5937819480896,0
32.5937819480896,0
32.5937819480896,10
32.5937819480896,0
32.5937819480896,0
32.5937819480896,0
32.5937819480896,0
32.5937819480896,0
32.5937819480896,0
32.69552040100098,2
32.69552040100098,11
32.69717597961426,0
32.69717597961426,0
32.69717597961426,0
32.69717597961426,0
32.69717597961426,0
32.69717597961426,0
32.69717597961426,0
32.69717597961426,0
32.79066491127014,0
32.79066491127014,2
32.79066491127014,0
32.79066491127014,0
32.79066491127014,0
32.79066491127014,3
32.79066491127014,0
32.79066491127014,0
32.79066491127014,0
32.79066491127014,0
32.895962715148926,0
32.895962715148926,0
32.895962715148926,0
32.895962715148926,0
32.895962715148926,0
32.895962715148926,0
32.895962715148926,0
32.895962715148926,0
32.895962715148926,0
32.895962715148926,0
32.99711585044861,3
32.99711585044861,0
32.99711585044861,0
32.99711585044861,0
32.99711585044861,0
32.99711585044861,1
32.99711585044861,0
32.99711585044861,0
32.99711585044861,0
32.99711585044861,0
33.10172653198242,0
33.10172653198242,0
33.10172653198242,3
33.10172653198242,0
33.10172653198242,1
33.10172653198242,0
33.10172653198242,0
33.10172653198242,2
33.10172653198242,0
33.10172653198242,9
33.20160460472107,0
33.20160460472107,3
33.20160460472107,0
33.20160460472107,1
33.20160460472107,0
33.20160460472107,0
33.20160460472107,0
33.20160460472107,0
33.20160460472107,0
33.20160460472107,0
33.30160045623779,0
33.30160045623779,7
33.30160045623779,0
33.30160045623779,0
33.30160045623779,0
33.30160045623779,0
33.30160045623779,0
33.30160045623779,0
33.30160045623779,0
33.40092349052429,0
33.40092349052429,0
33.40092349052429,0
33.40092349052429,0
33.40092349052429,0
33.40092349052429,0
33.40092349052429,0
33.40092349052429,0
33.40092349052429,0
33.40092349052429,0
33.50053548812866,0
33.50053548812866,0
33.50053548812866,0
33.50053548812866,0
33.50053548812866,0
33.50053548812866,1
33.50053548812866,0
33.50053548812866,0
33.50053548812866,0
33.50053548812866,0
33.59497570991516,0
33.59497570991516,2
33.59497570991516,0
33.59497570991516,0
33.59497570991516,0
33.59497570991516,0
33.59497570991516,0
33.59497570991516,0
33.59497570991516,0
33.67983651161194,0
33.67983651161194,0
33.67983651161194,0
33.67983651161194,0
33.67983651161194,0
33.67983651161194,0
33.67983651161194,0
33.67983651161194,0
33.67983651161194,0
33.67983651161194,0
33.775057315826416,0
33.775057315826416,0
33.775057315826416,0
33.775057315826416,0
33.775057315826416,0
33.775057315826416,0
33.775057315826416,0
33.775057315826416,0
33.775057315826416,0
33.880948543548584,0
33.880948543548584,0
33.880948543548584,0
33.880948543548584,0
33.880948543548584,0
33.880948543548584,0
33.880948543548584,57
33.880948543548584,0
33.880948543548584,6
33.880948543548584,0
33.97368311882019,0
33.97368311882019,0
33.97368311882019,0
33.97368311882019,0
33.97368311882019,0
33.97368311882019,0
33.97368311882019,0
33.97368311882019,0
33.97368311882019,0
34.06166172027588,0
34.06166172027588,0
34.06166172027588,0
34.06166172027588,0
34.06166172027588,0
34.06166172027588,1
34.06166172027588,0
34.06166172027588,0
34.06166172027588,1
34.06166172027588,0
34.16881012916565,0
34.16881012916565,0
34.16881012916565,0
34.16881012916565,0
34.16881012916565,2
34.16881012916565,0
34.16881012916565,0
34.16881012916565,0
34.16881012916565,0
34.2631299495697,0
34.2631299495697,0
34.2631299495697,0
34.2631299495697,0
34.2631299495697,0
34.2631299495697,0
34.2631299495697,0
34.2631299495697,0
34.2631299495697,0
34.35800313949585,0
34.35800313949585,0
34.35800313949585,0
34.35800313949585,0
34.35800313949585,0
34.35800313949585,0
34.35800313949585,0
34.35800313949585,0
34.35800313949585,0
34.45129036903381,0
34.45129036903381,0
34.45129036903381,0
34.45129036903381,0
34.45129036903381,0
34.45129036903381,3
34.453296184539795,0
34.453296184539795,0
34.453296184539795,5
34.453296184539795,0
34.53823256492615,0
34.53823256492615,0
34.53823256492615,0
34.53823256492615,0
34.53823256492615,0
34.53823256492615,0
34.53823256492615,0
34.53823256492615,0
34.53823256492615,0
34.63930654525757,0
34.63930654525757,0
34.63930654525757,0
34.63930654525757,2
34.63930654525757,0
34.63930654525757,1
34.63930654525757,0
34.63930654525757,0
34.63930654525757,0
34.72827434539795,0
34.72827434539795,0
34.72827434539795,0
34.72827434539795,0
34.72827434539795,0
34.72827434539795,0
34.72827434539795,0
34.72827434539795,0
34.72827434539795,2
34.82327079772949,0
34.82327079772949,0
34.82327079772949,0
34.82327079772949,0
34.82327079772949,4
34.82327079772949,0
34.82327079772949,0
34.82327079772949,0
34.82327079772949,0
34.82327079772949,3
34.91957187652588,0
34.91957187652588,0
34.91957187652588,5
34.91957187652588,3
34.91957187652588,1
34.91957187652588,0
34.91957187652588,0
34.91957187652588,0
34.91957187652588,2
35.01506733894348,0
35.01506733894348,0
35.01506733894348,0
35.01506733894348,2
35.01506733894348,0
35.01506733894348,0
35.01506733894348,0
35.01506733894348,0
35.01506733894348,0
35.106295347213745,0
35.106295347213745,0
35.106295347213745,0
35.106295347213745,0
35.106295347213745,0
35.106295347213745,0
35.106295347213745,0
35.11040997505188,3
35.11040997505188,46
35.2042121887207,0
35.2042121887207,0
35.2042121887207,0
35.2042121887207,0
35.2042121887207,0
35.2042121887207,41
35.2042121887207,42
35.2042121887207,43
35.2042121887207,2
35.28503704071045,283
35.28503704071045,0
35.28503704071045,15
35.28503704071045,0
35.28503704071045,0
35.28503704071045,0
35.28503704071045,51
35.28503704071045,128
35.28503704071045,131
35.38116264343262,159
35.38116264343262,34
35.38116264343262,42
35.38116264343262,50
35.38116264343262,125
35.38116264343262,223
35.38116264343262,12
35.38116264343262,59
35.38116264343262,36
35.38116264343262,39
35.4908447265625,212
35.4908447265625,218
35.4908447265625,12
35.4908447265625,15
35.4908447265625,94
35.4908447265625,1
35.4908447265625,150
35.4908447265625,138
35.4908447265625,35
35.58673882484436,13
35.58673882484436,74
35.58673882484436,23
35.58673882484436,159
35.58673882484436,16
35.58673882484436,12
35.58673882484436,11
35.58673882484436,96
35.58673882484436,105
35.58673882484436,69
35.69080376625061,92
35.69080376625061,18
35.69080376625061,4
35.69080376625061,254
35.69080376625061,5
35.69080376625061,134
35.69080376625061,26
35.69080376625061,309
35.69080376625061,77
35.69080376625061,45
35.79079818725586,28
35.79079818725586,35
35.79079818725586,7
35.79079818725586,50
35.79079818725586,13
35.79079818725586,134
35.79079818725586,61
35.79079818725586,134
35.79079818725586,153
35.79079818725586,11
35.88599491119385,0
35.88599491119385,6
35.88599491119385,0
35.88599491119385,0
35.88599491119385,0
35.88599491119385,2
35.88599491119385,15
35.88599491119385,103
35.88599491119385,18
35.88599491119385,22
35.99384093284607,18
35.99384093284607,14
35.99384093284607,12
35.99384093284607,0
35.99384093284607,95
35.99384093284607,108
35.99384093284607,303
35.99384093284607,72
35.99384093284607,35
35.99384093284607,5
36.09239315986633,20
36.09239315986633,0
36.09239315986633,49
36.09239315986633,240
36.09239315986633,132
36.09239315986633,80
36.09239315986633,88
36.09239315986633,64
36.09239315986633,0
36.19373393058777,100
36.19373393058777,71
36.19373393058777,34
36.195738554000854,117
36.195738554000854,44
36.195738554000854,36
36.195738554000854,4
36.195738554000854,66
36.195738554000854,38
36.195738554000854,8
36.281090259552,91
36.29685306549072,56
36.29685306549072,0
36.29685306549072,28
36.29685306549072,16
36.29685306549072,210
36.29685306549072,165
36.29685306549072,64
36.29685306549072,52
36.29685306549072,16
36.39490628242493,0
36.39490628242493,27
36.39490628242493,11
36.39490628242493,0
36.39490628242493,0
36.39490628242493,0
36.39490628242493,104
36.39490628242493,53
36.39490628242493,9
36.39490628242493,187
36.48998308181763,7
36.48998308181763,23
36.48998308181763,6
36.48998308181763,0
36.49170637130737,0
36.49170637130737,0
36.49170637130737,0
36.49170637130737,22
36.49170637130737,47
36.58514046669006,182
36.58514046669006,34
36.58514046669006,4
36.58514046669006,4
36.58514046669006,0
36.58514046669006,0
36.58514046669006,1
36.58514046669006,0
36.58514046669006,0
36.58514046669006,0
36.67601990699768,0
36.67601990699768,0
36.67601990699768,28
36.67601990699768,3
36.67601990699768,0
36.67601990699768,18
36.67601990699768,1
36.67601990699768,0
36.67601990699768,17
36.77050709724426,0
36.77050709724426,5
36.77050709724426,0
36.77050709724426,90
36.77050709724426,535
36.77050709724426,46
36.77050709724426,354
36.77050709724426,134
36.77050709724426,29
36.8627450466156,27
36.8627450466156,9
36.8627450466156,9
36.8627450466156,0
36.8627450466156,0
36.8627450466156,20
36.8627450466156,49
36.8647518157959,742
36.8647518157959,10
36.95989394187927,41
36.95989394187927,38
36.95989394187927,23
36.95989394187927,0
36.95989394187927,6
36.95989394187927,75
36.95989394187927,42
36.95989394187927,443
36.95989394187927,240
36.95989394187927,104
37.066476821899414,169
37.066476821899414,44
37.066476821899414,68
37.066476821899414,146
37.066476821899414,313
37.066476821899414,71
37.066476821899414,269
37.066476821899414,307
37.066476821899414,844
37.066476821899414,385
37.16758465766907,13
37.16758465766907,373
37.16758465766907,61
37.16758465766907,289
37.16758465766907,282
37.16758465766907,1023
37.16758465766907,93
37.16758465766907,225
37.16758465766907,151
37.16758465766907,252
37.26826214790344,60
37.26826214790344,227
37.26826214790344,137
37.26826214790344,552
37.270267724990845,256
37.270267724990845,27
37.270267724990845,868
37.270267724990845,60
37.270267724990845,573
37.270267724990845,67
37.36715388298035,275
37.36715388298035,35
37.36715388298035,865
37.36715388298035,276
37.36715388298035,33
37.36715388298035,16
37.36715388298035,951
37.36715388298035,119
37.36715388298035,1023
37.4662721157074,235
37.4662721157074,649
37.46827697753906,180
37.46827697753906,97
37.46827697753906,32
37.46827697753906,140
37.46827697753906,87
37.46827697753906,389
37.46827697753906,133
37.46827697753906,35
37.55702090263367,129
37.55702090263367,413
37.55702090263367,255
37.55702090263367,12
37.55702090263367,27
37.55702090263367,115
37.55702090263367,344
37.55702090263367,25
37.55702090263367,410
37.65657639503479,507
37.65657639503479,61
37.658581495285034,653
37.658581495285034,238
37.658581495285034,53
37.658581495285034,99
37.658581495285034,315
37.658581495285034,39
37.658581495285034,13
37.658581495285034,88
37.751450061798096,188
37.751450061798096,512
37.751450061798096,20
37.751450061798096,122
37.751450061798096,22
37.751450061798096,2
37.751450061798096,39
37.751450061798096,466
37.751450061798096,293
37.85003185272217,16
37.85003185272217,43
37.85003185272217,6
37.85003185272217,118
37.85003185272217,70
37.85003185272217,55
37.85003185272217,245
37.85003185272217,194
37.85203766822815,67
37.95489001274109,125
37.95489001274109,1023
37.95489001274109,190
37.95489001274109,50
37.95489001274109,379
37.95489001274109,82
37.95489001274109,209
37.95489001274109,190
37.95489001274109,133
37.95489001274109,41
37.95489001274109,179
38.04984450340271,21
38.04984450340271,598
38.04984450340271,292
38.04984450340271,167
38.04984450340271,391
38.04984450340271,31
38.04984450340271,64
38.04984450340271,243
38.04984450340271,749
38.04984450340271,374
38.16256809234619,78
38.16256809234619,391
38.16256809234619,130
38.16256809234619,123
38.16256809234619,1021
38.16256809234619,333
38.16256809234619,587
38.16256809234619,249
38.16256809234619,119
38.16256809234619,459
38.265870094299316,125
38.265870094299316,155
38.265870094299316,140
38.265870094299316,36
38.265870094299316,510
38.265870094299316,413
38.265870094299316,226
38.265870094299316,712
38.265870094299316,12
38.265870094299316,350
38.36922359466553,924
38.36922359466553,186
38.36922359466553,331
38.36922359466553,56
38.36922359466553,511
38.36922359466553,524
38.36922359466553,650
38.36922359466553,640
38.36922359466553,379
38.36922359466553,736
38.46167349815369,179
38.46167349815369,260
38.46167349815369,103
38.46167349815369,1013
38.46167349815369,108
38.46167349815369,1023
38.46167349815369,532
38.46167349815369,701
38.46167349815369,30
38.46167349815369,249
38.5675733089447,987
38.5675733089447,280
38.5675733089447,250
38.5675733089447,133
38.5675733089447,627
38.5675733089447,1023
38.5675733089447,66
38.5675733089447,96
38.5675733089447,1023
38.66598391532898,168
38.66598391532898,315
38.66598391532898,582
38.66598391532898,66
38.66598391532898,289
38.66598391532898,808
38.667989015579224,268
38.667989015579224,351
38.667989015579224,336
38.667989015579224,349
38.76709294319153,181
38.76709294319153,116
38.76709294319153,508
38.76709294319153,299
38.76709294319153,1012
38.76709294319153,257
38.76709294319153,453
38.76709294319153,996
38.76709294319153,448
38.76709294319153,295
38.858901500701904,717
38.858901500701904,342
38.858901500701904,205
38.858901500701904,65
38.858901500701904,18
38.858901500701904,901
38.858901500701904,677
38.858901500701904,266
38.858901500701904,1023
38.970112562179565,484
38.970112562179565,81
38.970112562179565,93
38.970112562179565,223
38.970112562179565,65
38.970112562179565,273
38.970112562179565,512
38.970112562179565,104
38.970112562179565,186
38.970112562179565,84
39.07232689857483,531
39.07232689857483,387
39.07232689857483,227
39.07232689857483,87
39.07232689857483,32
39.07232689857483,154
39.07232689857483,296
39.07232689857483,713
39.07232689857483,198
39.07232689857483,73
39.15953612327576,835
39.15953612327576,4
39.15953612327576,75
39.15953612327576,0
39.15953612327576,17
39.15953612327576,128
39.15953612327576,944
39.15953612327576,281
39.15953612327576,309
39.15953612327576,49
39.27573204040527,157
39.27573204040527,103
39.27573204040527,103
39.27573204040527,36
39.27573204040527,505
39.27573204040527,52
39.27573204040527,187
39.27573204040527,133
39.27573204040527,32
39.27573204040527,268
39.378119468688965,395
39.378119468688965,186
39.38012456893921,95
39.38012456893921,11
39.38012456893921,446
39.38012456893921,23
39.38012456893921,408
39.38012456893921,52
39.38012456893921,88
39.38012456893921,152
39.47592902183533,239
39.47592902183533,105
39.47592902183533,80
39.47592902183533,133
39.47592902183533,295
39.47592902183533,66
39.47592902183533,3
39.47592902183533,52
39.47592902183533,86
39.47592902183533,213
39.47592902183533,144
39.58745002746582,0
39.58745002746582,213
39.58745002746582,516
39.58745002746582,2
39.58745002746582,236
39.58745002746582,145
39.58745002746582,94
39.58745002746582,566
39.58745002746582,290
39.58745002746582,76
39.69010519981384,192
39.69010519981384,213
39.69010519981384,6
39.69010519981384,194
39.69010519981384,226
39.69010519981384,93
39.69010519981384,45
39.69010519981384,70
39.69010519981384,147
39.69010519981384,358
39.69010519981384,7
39.80032300949097,403
39.80032300949097,83
39.80032300949097,54
39.80032300949097,806
39.80032300949097,19
39.80032300949097,190
39.80032300949097,562
39.80032300949097,279
39.80032300949097,83
39.80032300949097,230
39.902973890304565,74
39.902973890304565,41
39.902973890304565,380
39.902973890304565,96
39.902973890304565,103
39.902973890304565,880
39.902973890304565,629
39.902973890304565,110
39.902973890304565,87
39.902973890304565,71
40.014206409454346,533
40.014206409454346,820
40.014206409454346,106
40.014206409454346,63
40.014206409454346,92
40.014206409454346,58
40.014206409454346,975
40.014206409454346,331
40.014206409454346,33
40.014206409454346,272
40.108802795410156,144
40.108802795410156,43
40.108802795410156,71
40.108802795410156,114
40.108802795410156,75
40.108802795410156,17
40.108802795410156,7
40.108802795410156,122
40.108802795410156,25
40.108802795410156,2
40.108802795410156,0
40.22175455093384,0
40.22175455093384,11
40.22175455093384,3
40.22175455093384,37
40.223761558532715,0
40.223761558532715,358
40.223761558532715,1023
40.223761558532715,548
40.223761558532715,368
40.223761558532715,28
40.32749009132385,86
40.32749009132385,59
40.32749009132385,68
40.32749009132385,89
40.32749009132385,67
40.32749009132385,0
40.32749009132385,114
40.32749009132385,100
40.32749009132385,82
40.32749009132385,49
40.430246114730835,426
40.430246114730835,0
40.430246114730835,45
40.430246114730835,48
40.430246114730835,184
40.430246114730835,141
40.430246114730835,103
40.430246114730835,32
40.430246114730835,30
40.430246114730835,227
40.527467489242554,91
40.527467489242554,28
40.527467489242554,24
40.527467489242554,20
40.527467489242554,52
40.529473543167114,7
40.529473543167114,135
40.529473543167114,71
40.529473543167114,5
40.529473543167114,7
40.625558376312256,0
40.625558376312256,7
40.625558376312256,7
40.625558376312256,12
40.625558376312256,4
40.625558376312256,140
40.625558376312256,51
40.625558376312256,60
40.62734031677246,14
40.62734031677246,5
40.7230007648468,8
40.7230007648468,66
40.7230007648468,48
40.7230007648468,77
40.7230007648468,21
40.7230007648468,5
40.7230007648468,86
40.7230007648468,145
40.725005865097046,147
40.82036900520325,89
40.82036900520325,13
40.82036900520325,25
40.82036900520325,53
40.82036900520325,345
40.82036900520325,88
40.82036900520325,79
40.82036900520325,1
40.82036900520325,90
40.903589963912964,17
40.903589963912964,156
40.903589963912964,73
40.903589963912964,37
40.903589963912964,222
40.903589963912964,0
40.903589963912964,17
40.903589963912964,15
40.903589963912964,7
40.903589963912964,133
41.01505208015442,0
41.01505208015442,45
41.01505208015442,26
41.01505208015442,0
41.01505208015442,129
41.01505208015442,71
41.01505208015442,25
41.01505208015442,17
41.01505208015442,46
41.01505208015442,27
41.11263465881348,79
41.11263465881348,77
41.11263465881348,20
41.11263465881348,15
41.11263465881348,4
41.11263465881348,111
41.11263465881348,107
41.11263465881348,23
41.11263465881348,43
41.20598268508911,42
41.20598268508911,60
41.20598268508911,5
41.20598268508911,0
41.20598268508911,19
41.20598268508911,0
41.20598268508911,0
41.20598268508911,0
41.20598268508911,0
41.20598268508911,9
41.3060028553009,0
41.3060028553009,0
41.3060028553009,2
41.3060028553009,0
41.3060028553009,1
41.3060028553009,3
41.3060028553009,30
41.3060028553009,10
41.3060028553009,6
41.39699840545654,2
41.39699840545654,0
41.39699840545654,0
41.39699840545654,0
41.39699840545654,5
41.39699840545654,0
41.39699840545654,0
41.39699840545654,0
41.39699840545654,0
41.39699840545654,27
41.493369579315186,0
41.493369579315186,0
41.493369579315186,0
41.493369579315186,10
41.493369579315186,8
41.493369579315186,6
41.493369579315186,2
41.493369579315186,0
41.493369579315186,0
41.588006258010864,0
41.588006258010864,24
41.588006258010864,0
41.588006258010864,17
41.588006258010864,0
41.588006258010864,0
41.588006258010864,0
41.588006258010864,22
41.588006258010864,6
41.588006258010864,0
41.691009521484375,0
41.691009521484375,0
41.691009521484375,0
41.691009521484375,1
41.691009521484375,0
41.691009521484375,0
41.691009521484375,0
41.691009521484375,9
41.691009521484375,3
41.78790020942688,6
41.78790020942688,0
41.78790020942688,2
41.78790020942688,0
41.78790020942688,0
41.78790020942688,9
41.78790020942688,1
41.78790020942688,0
41.78790020942688,0
41.789904832839966,19
41.881675004959106,0
41.881675004959106,4
41.881675004959106,7
41.881675004959106,14
41.881675004959106,4
41.881675004959106,0
41.881675004959106,0
41.881675004959106,0
41.881675004959106,0
41.97852158546448,1
41.97852158546448,2
41.97852158546448,0
41.97852158546448,10
41.97852158546448,10
41.97852158546448,12
41.98052787780762,0
41.98052787780762,26
41.98052787780762,6
42.07613229751587,18
42.07613229751587,1
42.07613229751587,1
42.07613229751587,15
42.07613229751587,0
42.07613229751587,0
42.07613229751587,15
42.07613229751587,4
42.07613229751587,2
42.07613229751587,0
42.15950131416321,0
42.15950131416321,0
42.15950131416321,7
42.15950131416321,0
42.15950131416321,0
42.15950131416321,0
42.15950131416321,28
42.15950131416321,16
42.15950131416321,0
42.26728916168213,0
42.26728916168213,0
42.26728916168213,0
42.26728916168213,0
42.26728916168213,0
42.26728916168213,36
42.26728916168213,0
42.26728916168213,1
42.26728916168213,0
42.26728916168213,4
42.35109996795654,1
42.35109996795654,0
42.35109996795654,0
42.35109996795654,0
42.35109996795654,6
42.35109996795654,7
42.35109996795654,7
42.35109996795654,2
42.35109996795654,8
42.46636509895325,0
42.46636509895325,0
42.46636509895325,13
42.46636509895325,2
42.46636509895325,0
42.46636509895325,0
42.46636509895325,2
42.46636509895325,27
42.46636509895325,3
42.46636509895325,0
42.565537452697754,0
42.565537452697754,0
42.565537452697754,0
42.565537452697754,2
42.565537452697754,16
42.565537452697754,0
42.565537452697754,0
42.565537452697754,0
42.565537452697754,4
42.565537452697754,0
42.652637004852295,0
42.652637004852295,0
42.652637004852295,0
42.652637004852295,0
42.652637004852295,0
42.652637004852295,1
42.652637004852295,0
42.652637004852295,0
42.652637004852295,0
42.652637004852295,0
42.765427112579346,8
42.765427112579346,0
42.765427112579346,12
42.765427112579346,0
42.765427112579346,8
42.765427112579346,14
42.765427112579346,6
42.765427112579346,0
42.765427112579346,2
42.765427112579346,0
42.86402249336243,2
42.86402249336243,1
42.86402249336243,5
42.86402249336243,4
42.86402249336243,25
42.86602735519409,1
42.86602735519409,2
42.86602735519409,2
42.86602735519409,4
42.96669244766235,10
42.96669244766235,4
42.96669244766235,0
42.96669244766235,28
42.96669244766235,0
42.96669244766235,0
42.96669244766235,0
42.96669244766235,0
42.96669244766235,0
42.96669244766235,0
43.06324505805969,0
43.06324505805969,1
43.06324505805969,0
43.06324505805969,11
43.06324505805969,3
43.06324505805969,0
43.06324505805969,0
43.06324505805969,3
43.06324505805969,2
43.06324505805969,0
43.159024715423584,0
43.159024715423584,14
43.159024715423584,0
43.159024715423584,0
43.159024715423584,3
43.159024715423584,7
43.159024715423584,0
43.159024715423584,0
43.159024715423584,4
43.25420045852661,1
43.256206035614014,0
43.256206035614014,4
43.256206035614014,0
43.256206035614014,1
43.256206035614014,2
43.256206035614014,0
43.256206035614014,6
43.256206035614014,5
43.256206035614014,0
43.34890961647034,0
43.34890961647034,0
43.34890961647034,1
43.34890961647034,0
43.34890961647034,0
43.34890961647034,0
43.34890961647034,0
43.34890961647034,1
43.34890961647034,0
43.44427728652954,0
43.44427728652954,0
43.44427728652954,2
43.44427728652954,3
43.44427728652954,5
43.44427728652954,0
43.44427728652954,0
43.44427728652954,0
43.44427728652954,0
43.44427728652954,14
43.55293583869934,0
43.55293583869934,0
43.55293583869934,0
43.554682970047,0
43.554682970047,0
43.554682970047,0
43.554682970047,2
43.554682970047,0
43.554682970047,0
43.554682970047,0
43.65269756317139,4
43.65269756317139,0
43.65269756317139,0
43.65269756317139,0
43.65269756317139,0
43.65269756317139,0
43.65269756317139,0
43.65269756317139,0
43.65269756317139,1
43.65269756317139,0
43.751219034194946,0
43.751219034194946,0
43.751219034194946,0
43.751219034194946,0
43.751219034194946,0
43.751219034194946,0
43.751219034194946,0
43.751219034194946,0
43.75322461128235,0
43.75322461128235,0
43.85199308395386,0
43.85199308395386,0
43.85199308395386,0
43.85199308395386,0
43.85199308395386,3
43.85199308395386,0
43.85199308395386,0
43.85199308395386,0
43.85199308395386,0
43.949687242507935,0
43.949687242507935,0
43.949687242507935,0
43.949687242507935,0
43.949687242507935,0
43.949687242507935,0
43.949687242507935,0
43.949687242507935,3
43.949687242507935,5
43.95169234275818,1
44.04740643501282,0
44.04740643501282,0
44.04740643501282,0
44.04740643501282,0
44.04740643501282,0
44.04740643501282,0
44.04740643501282,0
44.04740643501282,0
44.04740643501282,0
44.04740643501282,0
44.14162731170654,0
44.14162731170654,0
44.14162731170654,7
44.14162731170654,1
44.14162731170654,0
44.14162731170654,0
44.14162731170654,0
44.14162731170654,0
44.14162731170654,0
44.23882460594177,0
44.23882460594177,0
44.23882460594177,0
44.240829944610596,9
44.240829944610596,1
44.240829944610596,0
44.240829944610596,7
44.240829944610596,0
44.240829944610596,0
44.240829944610596,0
44.337770223617554,0
44.337770223617554,1
44.337770223617554,0
44.337770223617554,0
44.337770223617554,0
44.33977723121643,0
44.33977723121643,0
44.33977723121643,0
44.33977723121643,0
44.427347898483276,0
44.427347898483276,7
44.427347898483276,0
44.427347898483276,0
44.427347898483276,1
44.427347898483276,0
44.427347898483276,0
44.427347898483276,0
44.427347898483276,0
44.427347898483276,0
44.52841114997864,0
44.52841114997864,0
44.52841114997864,40
44.52841114997864,2
44.52841114997864,0
44.5304172039032,4
44.5304172039032,0
44.5304172039032,0
44.5304172039032,0
44.62354135513306,0
44.62354135513306,0
44.62354135513306,6
44.62354135513306,1
44.62354135513306,10
44.62354135513306,0
44.62354135513306,0
44.62354135513306,0
44.62354135513306,0
44.71712899208069,0
44.71712899208069,0
44.71712899208069,0
44.71712899208069,0
44.71712899208069,0
44.71712899208069,0
44.71712899208069,0
44.71712899208069,0
44.71712899208069,1
44.71712899208069,0
44.808438777923584,0
44.808438777923584,0
44.808438777923584,0
44.808438777923584,0
44.808438777923584,0
44.808438777923584,0
44.808438777923584,0
44.808438777923584,0
44.808438777923584,0
44.90590167045593,0
44.90590167045593,0
44.90590167045593,2
44.90590167045593,0
44.90590167045593,4
44.90590167045593,0
44.90590167045593,1
44.90590167045593,15
44.90590167045593,8
45.00135612487793,18
45.00135612487793,11
45.00135612487793,12
45.00135612487793,11
45.00135612487793,14
45.00135612487793,57
45.00135612487793,67
45.00135612487793,18
45.00135612487793,0
45.09592270851135,1
45.09592270851135,6
45.09592270851135,0
45.09592270851135,2
45.09592270851135,0
45.09592270851135,20
45.09592270851135,0
45.09592270851135,0
45.09592270851135,4
45.09592270851135,0
45.19116830825806,0
45.19116830825806,0
45.19116830825806,0
45.19116830825806,0
45.19116830825806,0
45.19116830825806,0
45.19116830825806,3
45.19116830825806,2
45.19116830825806,2
45.28518462181091,0
45.28518462181091,0
45.28518462181091,0
45.28518462181091,0
45.28518462181091,19
45.28693127632141,0
45.28693127632141,0
45.28693127632141,0
45.28693127632141,0
45.382445335388184,7
45.384450912475586,0
45.384450912475586,0
45.384450912475586,0
45.384450912475586,0
45.384450912475586,0
45.384450912475586,1
45.384450912475586,2
45.384450912475586,2
45.384450912475586,0
45.48155450820923,0
45.48155450820923,0
45.48155450820923,0
45.48155450820923,0
45.48155450820923,0
45.48155450820923,7
45.48155450820923,0
45.48155450820923,0
45.48155450820923,0
45.48155450820923,0
45.57307720184326,0
45.57307720184326,0
45.57307720184326,0
45.57307720184326,0
45.57307720184326,2
45.57307720184326,1
45.57307720184326,3
45.57307720184326,0
45.57307720184326,0
45.6768798828125,0
45.6768798828125,3
45.6768798828125,0
45.6768798828125,0
45.6768798828125,0
45.6768798828125,0
45.6768798828125,0
45.6768798828125,0
45.6768798828125,0
45.6768798828125,2
45.7740364074707,0
45.7740364074707,0
45.7740364074707,0
45.7740364074707,0
45.7740364074707,0
45.7740364074707,1
45.7740364074707,0
45.7740364074707,0
45.7740364074707,0
45.8604941368103,0
45.8604941368103,0
45.8604941368103,0
45.8604941368103,5
45.8604941368103,2
45.8604941368103,0
45.8604941368103,11
45.8604941368103,5
45.8604941368103,0
45.8604941368103,0
45.96355390548706,0
45.96355390548706,0
45.96355390548706,0
45.96355390548706,0
45.96355390548706,2
45.96355390548706,8
45.96355390548706,0
45.96355390548706,0
45.96355390548706,0
46.05109357833862,0
46.05109357833862,8
46.05109357833862,0
46.05109357833862,7
46.05109357833862,0
46.05109357833862,0
46.05109357833862,0
46.05109357833862,0
46.05109357833862,3
46.15213704109192,0
46.15213704109192,0
46.15213704109192,0
46.15213704109192,0
46.15213704109192,0
46.15213704109192,0
46.15213704109192,0
46.15213704109192,0
46.15213704109192,0
46.15213704109192,0
46.24743580818176,1
46.24743580818176,10
46.24743580818176,0
46.24743580818176,0
46.24743580818176,17
46.24743580818176,77
46.24743580818176,175
46.24743580818176,1
46.24743580818176,0
46.34724426269531,0
46.34724426269531,1
46.34724426269531,0
46.34724426269531,1
46.34724426269531,0
46.34724426269531,4
46.34724426269531,0
46.34724426269531,2
46.34724426269531,18
46.34724426269531,23
46.44802379608154,0
46.44802379608154,0
46.44802379608154,0
46.44802379608154,0
46.44802379608154,0
46.44802379608154,0
46.44802379608154,0
46.44802379608154,46
46.44802379608154,88
46.44802379608154,2
46.54453682899475,7
46.54453682899475,5
46.54453682899475,0
46.54453682899475,0
46.54453682899475,1
46.54453682899475,0
46.54453682899475,0
46.54453682899475,31
46.54453682899475,13
46.54453682899475,39
46.65454387664795,77
46.65454387664795,6
46.65454387664795,0
46.65454387664795,15
46.65454387664795,5
46.65454387664795,124
46.65454387664795,321
46.65454387664795,51
46.65454387664795,11
46.65454387664795,6
46.749600410461426,12
46.749600410461426,0
46.749600410461426,2
46.749600410461426,1
46.749600410461426,15
46.749600410461426,2
46.749600410461426,0
46.749600410461426,0
46.749600410461426,0
46.749600410461426,3
46.85155272483826,84
46.85155272483826,99
46.85155272483826,7
46.85155272483826,43
46.85155272483826,138
46.85155272483826,58
46.85155272483826,184
46.85355806350708,96
46.85355806350708,122
46.9463415145874,91
46.9463415145874,366
46.9463415145874,139
46.9463415145874,12
46.9463415145874,232
46.9463415145874,107
46.9463415145874,72
46.9463415145874,95
46.9463415145874,122
47.03504419326782,124
47.03504419326782,171
47.03504419326782,477
47.03504419326782,106
47.03504419326782,63
47.03504419326782,39
47.03504419326782,354
47.03504419326782,781
47.03504419326782,473
47.03504419326782,23
47.1370005607605,15
47.1370005607605,180
47.1370005607605,329
47.1370005607605,237
47.1370005607605,267
47.1370005607605,91
47.1370005607605,156
47.1370005607605,671
47.1370005607605,271
47.23360085487366,22
47.23360085487366,218
47.23360085487366,203
47.23360085487366,347
47.23360085487366,208
47.23360085487366,73
47.23360085487366,262
47.23360085487366,945
47.23360085487366,121
47.32140612602234,210
47.32140612602234,29
47.32140612602234,76
47.32140612602234,420
47.32140612602234,488
47.32140612602234,118
47.32140612602234,25
47.32140612602234,278
47.32140612602234,132
47.32140612602234,157
47.43089246749878,105
47.43089246749878,105
47.43089246749878,174
47.43089246749878,363
47.43089246749878,15
47.43089246749878,115
47.43089246749878,15
47.43089246749878,39
47.43089246749878,65
47.43089246749878,196
47.535064935684204,149
47.535064935684204,44
47.535064935684204,321
47.535064935684204,214
47.535064935684204,308
47.535064935684204,148
47.535064935684204,415
47.535064935684204,182
47.535064935684204,603
47.535064935684204,255
47.63647127151489,192
47.63647127151489,11
47.637218952178955,223
47.637218952178955,134
47.637218952178955,70
47.637218952178955,96
47.637218952178955,34
47.637218952178955,189
47.637218952178955,714
47.637218952178955,164
47.731650590896606,125
47.731650590896606,174
47.731650590896606,53
47.731650590896606,89
47.731650590896606,388
47.731650590896606,10
47.731650590896606,101
47.731650590896606,77
47.731650590896606,383
47.83365821838379,6
47.83365821838379,260
47.83365821838379,42
47.83365821838379,72
47.83365821838379,124
47.83365821838379,215
47.83365821838379,48
47.83365821838379,1
47.83365821838379,19
47.83566355705261,348
47.936553716659546,3
47.936553716659546,326
47.936553716659546,139
47.936553716659546,55
47.936553716659546,70
47.936553716659546,403
47.936553716659546,45
47.936553716659546,400
47.936553716659546,15
47.936553716659546,190
48.033809423446655,39
48.033809423446655,339
48.033809423446655,162
48.033809423446655,1023
48.033809423446655,207
48.033809423446655,568
48.033809423446655,37
48.033809423446655,86
48.033809423446655,31
48.033809423446655,62
48.13763403892517,238
48.13763403892517,3
48.13763403892517,300
48.13763403892517,213
48.13763403892517,75
48.13763403892517,71
48.13763403892517,38
48.13763403892517,296
48.13763403892517,66
48.13763403892517,420
48.23740887641907,143
48.23740887641907,205
48.23740887641907,45
48.23740887641907,98
48.23740887641907,8
48.23740887641907,6
48.23740887641907,232
48.23740887641907,276
48.23740887641907,244
48.32026743888855,635
48.32026743888855,2
48.32026743888855,70
48.32026743888855,4
48.32026743888855,53
48.32026743888855,110
48.32026743888855,293
48.32026743888855,159
48.32026743888855,264
48.32026743888855,148
48.42893934249878,189
48.42893934249878,5
48.42893934249878,129
48.42893934249878,135
48.430686950683594,17
48.430686950683594,142
48.430686950683594,115
48.430686950683594,31
48.430686950683594,47
48.52577066421509,75
48.52577066421509,191
48.52577066421509,281
48.52577066421509,105
48.52777647972107,253
48.52777647972107,16
48.52777647972107,191
48.52777647972107,50
48.52777647972107,49
48.52777647972107,150
48.62416458129883,4
48.62416458129883,359
48.62416458129883,55
48.62416458129883,43
48.62416458129883,28
48.62416458129883,35
48.62416458129883,102
48.62416458129883,18
48.62416458129883,165
48.72195363044739,275
48.72195363044739,177
48.72195363044739,57
48.72195363044739,501
48.72195363044739,226
48.72195363044739,201
48.72195363044739,17
48.72195363044739,50
48.72195363044739,8
48.72195363044739,0
48.81066536903381,67
48.81066536903381,149
48.81066536903381,73
48.81066536903381,37
48.81066536903381,24
48.81066536903381,196
48.81066536903381,172
48.81066536903381,146
48.81066536903381,76
48.91808247566223,9
48.91808247566223,68
48.91808247566223,338
48.91808247566223,147
48.920087575912476,73
48.920087575912476,164
48.920087575912476,398
48.920087575912476,103
48.920087575912476,121
48.920087575912476,310
49.02088952064514,272
49.02088952064514,238
49.02088952064514,249
49.02088952064514,120
49.02088952064514,352
49.02088952064514,130
49.02088952064514,224
49.02088952064514,91
49.02088952064514,193
49.02088952064514,0
49.11166071891785,616
49.11166071891785,159
49.11166071891785,578
49.11166071891785,181
49.11166071891785,187
49.11166071891785,162
49.11166071891785,3
49.11166071891785,725
49.11166071891785,78
49.11166071891785,222
49.20654606819153,47
49.20654606819153,763
49.20654606819153,124
49.20654606819153,4
49.20654606819153,200
49.20654606819153,322
49.20654606819153,615
49.20654606819153,137
49.20654606819153,92
49.30363750457764,421
49.30363750457764,142
49.30363750457764,192
49.30363750457764,13
49.30363750457764,576
49.30363750457764,190
49.30363750457764,162
49.30363750457764,204
49.30363750457764,0
49.39735221862793,465
49.39735221862793,190
49.39735221862793,117
49.39735221862793,232
49.39735221862793,151
49.39735221862793,263
49.39735221862793,167
49.39735221862793,20
49.39735221862793,91
49.500999212265015,345
49.500999212265015,114
49.500999212265015,251
49.500999212265015,98
49.500999212265015,367
49.500999212265015,38
49.500999212265015,558
49.500999212265015,35
49.500999212265015,130
49.500999212265015,341
49.588948249816895,28
49.588948249816895,1
49.588948249816895,590
49.588948249816895,177
49.588948249816895,120
49.588948249816895,83
49.588948249816895,660
49.588948249816895,114
49.588948249816895,86
49.68179893493652,5
49.68179893493652,346
49.68179893493652,111
49.68179893493652,361
49.68179893493652,116
49.68179893493652,136
49.68179893493652,121
49.68179893493652,288
49.68179893493652,743
49.79235291481018,107
49.79235291481018,85
49.79235291481018,5
49.79235291481018,64
49.79235291481018,11
49.79235291481018,5
49.79235291481018,0
49.79235291481018,80
49.79235291481018,237
49.79235291481018,398
49.891282081604004,181
49.891282081604004,208
49.891282081604004,80
49.891282081604004,92
49.891282081604004,168
49.891282081604004,34
49.891282081604004,132
49.891282081604004,55
49.891282081604004,53
49.891282081604004,215
49.98957395553589,778
49.98957395553589,513
49.98957395553589,45
49.98957395553589,52
49.99157953262329,7
49.99157953262329,13
49.99157953262329,7
49.99157953262329,3
49.99157953262329,13
49.99157953262329,0
50.08992838859558,0
50.08992838859558,0
50.08992838859558,0
50.08992838859558,6
50.08992838859558,2
50.08992838859558,0
50.08992838859558,0
50.08992838859558,0
50.08992838859558,0
50.18657851219177,1
50.18657851219177,12
50.18657851219177,0
50.18657851219177,0
50.18657851219177,0
50.18657851219177,0
50.18657851219177,0
50.18657851219177,3
50.18657851219177,3
50.18832540512085,0
50.28003406524658,4
50.28003406524658,1
50.28003406524658,0
50.28003406524658,0
50.28003406524658,0
50.28003406524658,0
50.28003406524658,0
50.28003406524658,0
50.28003406524658,0
50.362300634384155,0
50.362300634384155,0
50.362300634384155,0
50.362300634384155,0
50.362300634384155,1
50.362300634384155,0
50.362300634384155,0
50.362300634384155,1
50.362300634384155,0
50.46661972999573,0
50.46661972999573,0
50.46661972999573,0
50.46661972999573,0
50.46661972999573,0
50.46661972999573,0
50.46661972999573,0
50.46862483024597,0
50.46862483024597,10
50.46862483024597,1
50.55148196220398,1
50.55148196220398,0
50.55148196220398,0
50.55148196220398,0
50.55148196220398,0
50.55148196220398,0
50.55148196220398,0
50.55148196220398,0
50.55148196220398,0
50.64727807044983,0
50.64727807044983,0
50.64727807044983,0
50.64727807044983,0
50.64727807044983,1
50.64727807044983,3
50.64727807044983,0
50.64727807044983,1
50.64727807044983,0
50.75572323799133,0
50.75572323799133,0
50.75572323799133,0
50.75572323799133,0
50.75572323799133,0
50.75572323799133,0
50.75572323799133,0
50.75572323799133,0
50.75572323799133,16
50.75572323799133,0
50.85403752326965,0
50.85403752326965,0
50.85403752326965,0
50.85403752326965,1
50.85403752326965,2
50.85403752326965,1
50.85403752326965,0
50.85403752326965,0
50.85403752326965,3
50.85403752326965,1
50.94941782951355,0
50.94941782951355,1
50.94941782951355,0
50.94941782951355,0
50.94941782951355,0
50.94941782951355,0
50.94941782951355,6
50.94941782951355,4
50.94941782951355,0
51.049524784088135,0
51.049524784088135,0
51.049524784088135,0
51.049524784088135,3
51.049524784088135,0
51.049524784088135,0
51.049524784088135,0
51.049524784088135,0
51.049524784088135,0
51.049524784088135,0
51.14596939086914,0
51.14596939086914,0
51.14596939086914,0
51.14596939086914,0
51.14596939086914,1
51.14596939086914,0
51.14596939086914,3
51.14596939086914,10
51.14596939086914,0
51.24658989906311,8
51.24658989906311,0
51.24658989906311,1
51.24658989906311,0
51.24658989906311,0
51.24658989906311,0
51.24658989906311,0
51.24658989906311,0
51.24658989906311,0
51.24658989906311,0
51.34517693519592,0
51.34517693519592,8
51.34517693519592,0
51.34517693519592,3
51.34517693519592,11
51.34517693519592,10
51.34517693519592,0
51.34517693519592,0
51.34517693519592,0
51.34517693519592,0
51.44023609161377,2
51.44023609161377,11
51.44023609161377,12
51.44023609161377,0
51.44023609161377,0
51.44023609161377,0
51.44023609161377,3
51.44023609161377,0
51.44023609161377,3
51.44023609161377,8
51.54312443733215,0
51.54312443733215,0
51.54312443733215,17
51.54312443733215,0
51.54312443733215,0
51.54312443733215,0
51.54312443733215,0
51.54312443733215,0
51.54312443733215,0
51.63009786605835,1
51.63009786605835,13
51.63009786605835,0
51.63009786605835,0
51.63009786605835,0
51.63009786605835,2
51.63009786605835,0
51.63009786605835,3
51.63009786605835,0
51.63009786605835,0
51.72565221786499,15
51.72565221786499,0
51.72565221786499,0
51.72565221786499,4
51.72565221786499,12
51.72565221786499,2
51.72565221786499,0
51.72565221786499,0
51.72565221786499,0
51.82092237472534,0
51.82092237472534,2
51.82092237472534,0
51.82092237472534,2
51.82092237472534,0
51.82092237472534,0
51.82092237472534,0
51.82092237472534,0
51.82092237472534,1
51.92013907432556,0
51.92214393615723,0
51.92214393615723,0
51.92214393615723,0
51.92214393615723,0
51.92214393615723,0
51.92214393615723,0
51.92214393615723,0
51.92214393615723,0
51.92214393615723,0
52.01712512969971,0
52.01712512969971,2
52.01712512969971,0
52.01712512969971,21
52.01712512969971,17
52.01712512969971,0
52.01712512969971,0
52.01712512969971,0
52.01712512969971,2
52.11143779754639,0
52.11143779754639,0
52.11143779754639,0
52.11143779754639,0
52.11143779754639,1
52.11143779754639,6
52.11143779754639,0
52.11143779754639,0
52.11143779754639,6
52.200347661972046,0
52.200347661972046,0
52.200347661972046,1
52.200347661972046,3
52.200347661972046,12
52.200347661972046,12
52.200347661972046,0
52.200347661972046,4
52.200347661972046,4
52.200347661972046,0
52.300617694854736,0
52.300617694854736,3
52.300617694854736,5
52.300617694854736,0
52.300617694854736,0
52.300617694854736,0
52.300617694854736,8
52.300617694854736,0
52.300617694854736,0
52.393885374069214,0
52.393885374069214,0
52.393885374069214,6
52.393885374069214,2
52.393885374069214,0
52.393885374069214,20
52.393885374069214,2
52.393885374069214,11
52.393885374069214,12
52.489031076431274,1
52.489031076431274,0
52.489031076431274,0
52.489031076431274,0
52.489031076431274,0
52.489031076431274,0
52.489031076431274,1
52.489031076431274,0
52.489031076431274,3
52.58223247528076,2
52.58223247528076,1
52.58223247528076,1
52.58223247528076,0
52.58223247528076,0
52.58223247528076,0
52.58223247528076,0
52.58223247528076,0
52.58223247528076,0
52.58223247528076,2
52.67843270301819,0
52.67843270301819,0
52.67843270301819,10
52.67843270301819,0
52.67843270301819,0
52.67843270301819,0
52.67843270301819,0
52.67843270301819,0
52.67843270301819,3
52.77435779571533,0
52.77435779571533,0
52.77435779571533,0
52.77435779571533,0
52.77435779571533,0
52.77435779571533,0
52.77435779571533,0
52.77435779571533,0
52.77435779571533,0
52.854010581970215,0
52.854010581970215,0
52.854010581970215,8
52.854010581970215,0
52.854010581970215,0
52.854010581970215,0
52.854010581970215,0
52.854010581970215,0
52.854010581970215,0
52.854010581970215,4
52.964930057525635,0
52.964930057525635,1
52.964930057525635,1
52.964930057525635,0
52.964930057525635,0
52.964930057525635,0
52.964930057525635,0
52.964930057525635,0
52.964930057525635,0
53.06076622009277,0
53.06076622009277,0
53.06076622009277,0
53.06076622009277,0
53.06076622009277,1
53.06076622009277,0
53.06076622009277,0
53.06076622009277,0
53.06076622009277,0
53.06076622009277,1
53.15482521057129,2
53.15482521057129,0
53.15482521057129,2
53.15482521057129,2
53.15482521057129,0
53.15482521057129,4
53.15482521057129,29
53.15482521057129,0
53.15482521057129,0
53.23551154136658,0
53.23551154136658,0
53.23551154136658,0
53.23551154136658,0
53.23551154136658,2
53.23551154136658,7
53.23551154136658,1
53.23551154136658,0
53.23551154136658,0
53.34478259086609,0
53.34478259086609,0
53.34478259086609,0
53.34478259086609,0
53.34478259086609,1
53.34478259086609,4
53.34478259086609,2
53.34478259086609,2
53.34478259086609,6
53.43959093093872,0
53.43959093093872,0
53.43959093093872,0
53.43959093093872,0
53.43959093093872,4
53.43959093093872,0
53.43959093093872,0
53.43959093093872,1
53.43959093093872,0
53.43959093093872,0
53.52117419242859,2
53.52117419242859,0
53.52117419242859,0
53.52117419242859,0
53.52117419242859,0
53.52117419242859,2
53.52117419242859,2
53.52117419242859,0
53.52117419242859,0
53.62948393821716,0
53.62948393821716,0
53.62948393821716,0
53.631489276885986,1
53.631489276885986,0
53.631489276885986,3
53.631489276885986,5
53.631489276885986,0
53.631489276885986,0
53.631489276885986,0
53.72700047492981,0
53.72700047492981,0
53.72700047492981,0
53.72700047492981,2
53.72700047492981,1
53.72700047492981,0
53.72700047492981,23
53.72700047492981,19
53.72700047492981,1
53.80795407295227,3
53.80795407295227,0
53.80795407295227,15
53.80795407295227,8
53.80795407295227,5
53.80795407295227,0
53.80795407295227,7
53.80795407295227,0
53.80795407295227,5
53.90321636199951,3
53.90321636199951,3
53.90321636199951,0
53.90321636199951,14
53.90321636199951,0
53.90321636199951,34
53.90321636199951,1
53.90321636199951,0
53.90321636199951,0
54.00980877876282,0
54.00980877876282,2
54.00980877876282,14
54.00980877876282,4
54.00980877876282,0
54.00980877876282,0
54.00980877876282,3
54.00980877876282,3
54.00980877876282,1
54.00980877876282,2
54.104021072387695,0
54.104021072387695,5
54.104021072387695,7
54.104021072387695,0
54.104021072387695,3
54.104021072387695,2
54.104021072387695,6
54.104021072387695,15
54.104021072387695,2
54.198265075683594,0
54.198265075683594,14
54.198265075683594,5
54.198265075683594,4
54.198265075683594,18
54.198265075683594,0
54.198265075683594,0
54.198265075683594,0
54.198265075683594,8
54.283724308013916,0
54.283724308013916,5
54.283724308013916,0
54.283724308013916,34
54.283724308013916,8
54.283724308013916,5
54.283724308013916,11
54.283724308013916,5
54.283724308013916,0
54.38000988960266,15
54.38000988960266,42
54.38000988960266,50
54.38000988960266,4
54.38000988960266,13
54.38000988960266,2
54.38000988960266,6
54.38000988960266,0
54.38000988960266,29
54.38000988960266,55
54.47918081283569,2
54.47918081283569,9
54.47918081283569,44
54.47918081283569,15
54.47918081283569,20
54.47918081283569,6
54.47918081283569,0
54.47918081283569,0
54.47918081283569,0
54.57805919647217,0
54.57805919647217,4
54.57805919647217,0
54.57805919647217,0
54.57805919647217,0
54.57805919647217,0
54.57805919647217,5
54.57805919647217,0
54.57805919647217,3
54.57805919647217,6
54.665000677108765,5
54.665000677108765,14
54.665000677108765,0
54.665000677108765,7
54.665000677108765,7
54.665000677108765,1
54.665000677108765,3
54.665000677108765,3
54.665000677108765,0
54.77590870857239,0
54.77590870857239,10
54.77590870857239,0
54.77590870857239,5
54.77590870857239,0
54.77590870857239,1
54.77590870857239,0
54.77590870857239,0
54.77590870857239,1
54.77590870857239,0
54.88445568084717,0
54.88445568084717,0
54.88445568084717,0
54.88445568084717,19
54.88445568084717,3
54.88445568084717,9
54.88445568084717,0
54.88445568084717,18
54.88445568084717,0
54.88445568084717,3
54.88445568084717,5
54.98611307144165,3
54.98611307144165,0
54.98611307144165,5
54.98611307144165,0
54.98611307144165,12
54.98611307144165,0
54.98611307144165,2
54.98611307144165,0
54.98611307144165,0
54.98611307144165,0
54.98611307144165,0
55.09065246582031,0
55.09065246582031,2
55.09065246582031,0
55.09265971183777,0
55.09265971183777,0
55.09265971183777,0
55.09265971183777,0
55.09265971183777,0
55.09265971183777,0
55.186689138412476,0
55.186689138412476,2
55.186689138412476,0
55.186689138412476,14
55.186689138412476,0
55.186689138412476,0
55.186689138412476,0
55.186689138412476,0
55.186689138412476,0
55.186689138412476,6
55.27968406677246,0
55.27968406677246,2
55.27968406677246,0
55.27968406677246,0
55.27968406677246,0
55.27968406677246,13
55.27968406677246,5
55.27968406677246,2
55.27968406677246,1
55.27968406677246,0
55.3746337890625,0
55.3746337890625,0
55.3746337890625,0
55.3746337890625,7
55.3746337890625,0
55.3746337890625,0
55.3746337890625,0
55.3746337890625,5
55.3746337890625,3
55.48580598831177,0
55.487088680267334,11
55.487088680267334,5
55.487088680267334,6
55.487088680267334,0
55.487088680267334,0
55.487088680267334,1
55.487088680267334,0
55.487088680267334,0
55.487088680267334,1
55.58509016036987,0
55.58509016036987,2
55.58509016036987,0
55.58509016036987,4
55.58509016036987,0
55.58509016036987,13
55.58509016036987,2
55.58509016036987,2
55.58509016036987,0
55.58509016036987,0
55.67694282531738,0
55.67694282531738,0
55.67694282531738,0
55.67694282531738,0
55.67694282531738,0
55.67694282531738,0
55.67694282531738,0
55.67694282531738,8
55.67694282531738,0
55.77708601951599,1
55.77708601951599,0
55.77708601951599,2
55.77708601951599,0
55.77708601951599,4
55.77708601951599,0
55.77708601951599,1
55.77708601951599,0
55.77708601951599,2
55.77708601951599,0
55.86686730384827,0
55.86686730384827,6
55.86686730384827,0
55.86686730384827,0
55.86686730384827,1
55.86686730384827,0
55.86686730384827,7
55.86686730384827,0
55.86686730384827,4
55.86686730384827,1
55.97338390350342,0
55.9753897190094,0
55.9753897190094,0
55.9753897190094,0
55.9753897190094,5
55.9753897190094,5
55.9753897190094,5
55.9753897190094,0
55.9753897190094,51
56.0731840133667,0
56.0731840133667,2
56.0731840133667,5
56.0731840133667,0
56.0731840133667,7
56.0731840133667,21
56.0731840133667,10
56.0731840133667,0
56.0731840133667,0
56.0731840133667,2
56.185457944869995,8
56.185457944869995,1
56.185457944869995,3
56.185457944869995,0
56.185457944869995,5
56.185457944869995,2
56.185457944869995,0
56.185457944869995,2
56.185457944869995,0
56.185457944869995,0
56.185457944869995,4
56.28227615356445,6
56.28227615356445,0
56.28227615356445,0
56.28227615356445,6
56.28227615356445,0
56.28227615356445,0
56.28227615356445,0
56.28227615356445,0
56.28227615356445,0
56.28227615356445,0
56.39353847503662,0
56.39353847503662,0
56.39353847503662,3
56.39353847503662,0
56.39353847503662,0
56.39353847503662,0
56.39353847503662,0
56.39353847503662,0
56.39353847503662,0
56.39353847503662,0
56.50025010108948,0
56.50025010108948,0
56.50025010108948,0
56.50025010108948,0
56.50025010108948,4
56.50025010108948,5
56.50025010108948,0
56.50025010108948,0
56.50025010108948,0
56.50025010108948,0
56.50025010108948,0
56.598562240600586,0
56.598562240600586,3
56.598562240600586,0
56.598562240600586,0
56.598562240600586,0
56.598562240600586,0
56.598562240600586,0
56.598562240600586,0
56.598562240600586,0
56.69350981712341,0
56.69350981712341,0
56.69350981712341,0
56.69350981712341,0
56.69350981712341,1
56.69350981712341,1
56.69350981712341,3
56.69350981712341,0
56.69350981712341,0
56.69350981712341,0
56.78998875617981,7
56.78998875617981,0
56.78998875617981,0
56.78998875617981,4
56.78998875617981,2
56.78998875617981,0
56.78998875617981,0
56.78998875617981,0
56.78998875617981,1
56.78998875617981,2
56.899487257003784,0
56.899487257003784,5
56.899487257003784,0
56.899487257003784,2
56.899487257003784,0
56.899487257003784,0
56.899487257003784,0
56.899487257003784,0
56.899487257003784,5
56.899487257003784,0
56.994412899017334,0
56.994412899017334,0
56.994412899017334,0
56.994412899017334,0
56.994412899017334,0
56.994412899017334,0
56.994412899017334,0
56.994412899017334,0
56.994412899017334,0
57.08973979949951,0
57.08973979949951,0
57.08973979949951,0
57.08973979949951,2
57.08973979949951,0
57.08973979949951,0
57.08973979949951,0
57.08973979949951,0
57.08973979949951,0
57.08973979949951,0
57.185168981552124,3
57.185168981552124,0
57.185168981552124,0
57.185168981552124,0
57.185168981552124,4
57.185168981552124,1
57.185168981552124,0
57.185168981552124,3
57.185168981552124,0
57.185168981552124,0
57.27983260154724,0
57.27983260154724,0
57.27983260154724,0
57.27983260154724,0
57.27983260154724,4
57.27983260154724,0
57.27983260154724,2
57.27983260154724,0
57.27983260154724,11
57.27983260154724,0
57.39073657989502,1
57.39073657989502,0
57.39073657989502,1
57.39073657989502,0
57.39073657989502,0
57.39073657989502,0
57.39073657989502,0
57.39073657989502,0
57.39073657989502,3
57.48709297180176,0
57.48709297180176,3
57.48709297180176,0
57.48709297180176,0
57.48709297180176,0
57.48709297180176,0
57.48709297180176,0
57.48709297180176,0
57.48709297180176,2
57.48709297180176,0
57.584028482437134,1
57.584028482437134,0
57.584028482437134,0
57.584028482437134,0
57.584028482437134,0
57.584028482437134,0
57.584028482437134,0
57.584028482437134,0
57.584028482437134,0
57.67854022979736,0
57.67854022979736,0
57.67854022979736,0
57.68054533004761,1
57.68054533004761,0
57.68054533004761,0
57.68054533004761,0
57.68054533004761,0
57.68054533004761,0
57.68054533004761,0
57.772416830062866,0
57.772416830062866,0
57.772416830062866,0
57.772416830062866,0
57.772416830062866,0
57.772416830062866,1
57.772416830062866,0
57.772416830062866,2
57.772416830062866,0
