Time,EMG
0.8262901306152344,20
0.8262901306152344,17
0.8262901306152344,26
0.8262901306152344,17
0.8262901306152344,5
0.8262901306152344,8
0.8262901306152344,11
0.8262901306152344,1
0.8262901306152344,7
0.8262901306152344,1
0.8262901306152344,18
0.8262901306152344,0
0.8262901306152344,11
0.8262901306152344,7
0.8262901306152344,11
0.8262901306152344,6
0.8324065208435059,12
0.8324065208435059,5
0.8324065208435059,1
0.8324065208435059,9
0.832758903503418,3
0.832758903503418,1
0.832758903503418,6
0.832758903503418,0
0.832758903503418,1
0.8334882259368896,7
0.8334882259368896,2
0.8334882259368896,9
0.8334882259368896,1
0.8334882259368896,9
0.8334882259368896,4
0.8334882259368896,5
0.8334882259368896,3
0.8334882259368896,30
0.8334882259368896,24
0.8334882259368896,8
0.8334882259368896,6
0.8334882259368896,7
0.8334882259368896,2
0.8334882259368896,7
0.8334882259368896,12
0.8334882259368896,3
0.8334882259368896,1
0.8334882259368896,2
0.8334882259368896,11
0.8334882259368896,8
0.8334882259368896,5
0.8334882259368896,5
0.8334882259368896,6
0.8334882259368896,1
0.8334882259368896,29
0.8334882259368896,12
0.8334882259368896,18
0.8334882259368896,3
0.8334882259368896,13
0.8334882259368896,3
0.8334882259368896,4
0.8334882259368896,3
0.8334882259368896,15
0.8334882259368896,4
0.8334882259368896,3
0.8334882259368896,1
0.8334882259368896,4
0.8334882259368896,0
0.8334882259368896,5
0.8334882259368896,13
0.8334882259368896,2
0.8334882259368896,8
0.8334882259368896,3
0.8334882259368896,7
0.8334882259368896,25
0.8334882259368896,12
0.8334882259368896,11
0.8334882259368896,6
0.8334882259368896,3
0.8334882259368896,4
0.8334882259368896,2
0.8334882259368896,4
0.8393299579620361,3
0.8393299579620361,2
0.8393299579620361,18
0.8393299579620361,13
0.8393299579620361,8
0.8393299579620361,6
0.8393299579620361,8
0.8393299579620361,7
0.8401706218719482,10
0.8401706218719482,14
0.8401706218719482,5
0.8401706218719482,21
0.8401706218719482,2
0.8401706218719482,8
0.8401706218719482,1
0.8401706218719482,5
0.8401706218719482,16
0.8401706218719482,5
0.8401706218719482,2
0.8401706218719482,4
0.8401706218719482,0
0.8401706218719482,16
0.8401706218719482,7
0.8401706218719482,13
0.8401706218719482,5
0.8401706218719482,0
0.8401706218719482,3
0.8401706218719482,4
0.8401706218719482,0
0.8401706218719482,18
0.8401706218719482,0
0.8401706218719482,1
0.8401706218719482,2
0.8401706218719482,5
0.8401706218719482,5
0.8401706218719482,0
0.8401706218719482,2
0.8401706218719482,2
0.8432021141052246,1
0.8432021141052246,0
0.8432021141052246,2
0.8432021141052246,0
0.8432021141052246,0
0.8432021141052246,10
0.8432021141052246,5
0.8432021141052246,10
0.8432021141052246,15
0.8432021141052246,10
0.8432021141052246,1
0.8432021141052246,0
0.8432021141052246,8
0.8432021141052246,3
0.8432021141052246,1
1.222597599029541,10
1.222597599029541,6
1.222597599029541,16
1.222597599029541,2
1.222597599029541,4
1.222597599029541,2
1.222597599029541,9
1.222597599029541,5
1.222597599029541,21
1.222597599029541,11
1.222597599029541,16
1.222597599029541,9
1.222597599029541,0
1.222597599029541,16
1.222597599029541,0
1.222597599029541,6
1.222597599029541,8
1.222597599029541,3
1.222597599029541,5
1.222597599029541,16
1.222597599029541,0
1.222597599029541,9
1.222597599029541,0
1.222597599029541,7
1.222597599029541,1
1.222597599029541,3
1.222597599029541,0
1.222597599029541,3
1.222597599029541,3
1.222597599029541,18
1.222597599029541,4
1.222597599029541,5
1.222597599029541,1
1.222597599029541,3
1.222597599029541,0
1.222597599029541,8
1.222597599029541,4
1.222597599029541,11
1.468364953994751,2
1.468364953994751,0
1.468364953994751,0
1.468364953994751,0
1.468364953994751,0
1.468364953994751,0
1.468364953994751,1
1.468364953994751,18
1.468364953994751,0
1.468364953994751,7
1.468364953994751,0
1.468364953994751,2
1.468364953994751,6
1.468364953994751,0
1.468364953994751,6
1.468364953994751,17
1.468364953994751,4
1.468364953994751,14
1.468364953994751,12
1.468364953994751,14
1.468364953994751,5
1.468364953994751,11
1.468364953994751,25
1.468364953994751,3
1.7030465602874756,12
1.7030465602874756,15
1.7030465602874756,11
1.7030465602874756,8
1.7030465602874756,4
1.7030465602874756,4
1.7030465602874756,2
1.7057604789733887,0
1.7057604789733887,5
1.7057604789733887,2
1.7057604789733887,14
1.7057604789733887,21
1.7057604789733887,11
1.7057604789733887,16
1.7057604789733887,5
1.7057604789733887,2
1.7057604789733887,1
1.7057604789733887,2
1.7057604789733887,8
1.7057604789733887,11
1.7057604789733887,0
1.7057604789733887,2
1.7057604789733887,25
1.8331360816955566,2
1.8331360816955566,17
1.8331360816955566,1
1.8331360816955566,1
1.8331360816955566,7
1.8331360816955566,3
1.8331360816955566,0
1.8331360816955566,0
1.8331360816955566,9
1.8331360816955566,1
1.8331360816955566,8
1.8331360816955566,14
1.9538285732269287,4
1.9538285732269287,0
1.9538285732269287,0
1.9538285732269287,2
1.9538285732269287,1
1.9538285732269287,0
1.9538285732269287,1
1.9538285732269287,0
1.9538285732269287,15
1.9538285732269287,5
1.9538285732269287,3
1.9538285732269287,0
2.0613794326782227,0
2.0613794326782227,19
2.0613794326782227,0
2.0613794326782227,3
2.0613794326782227,14
2.0613794326782227,17
2.0613794326782227,0
2.0613794326782227,18
2.0613794326782227,11
2.0613794326782227,23
2.0613794326782227,30
2.162013530731201,34
2.162013530731201,29
2.162013530731201,9
2.162013530731201,18
2.162013530731201,8
2.162013530731201,18
2.162013530731201,16
2.162013530731201,39
2.162013530731201,12
2.162013530731201,33
2.2685964107513428,12
2.2685964107513428,46
2.2685964107513428,7
2.2685964107513428,50
2.2685964107513428,12
2.2685964107513428,52
2.2685964107513428,25
2.2685964107513428,31
2.2685964107513428,6
2.2685964107513428,51
2.2685964107513428,0
2.3952198028564453,0
2.3952198028564453,5
2.3952198028564453,6
2.3952198028564453,7
2.3952198028564453,37
2.3952198028564453,0
2.3952198028564453,0
2.3952198028564453,0
2.3952198028564453,0
2.3952198028564453,0
2.3952198028564453,4
2.3952198028564453,7
2.5056204795837402,17
2.5056204795837402,9
2.5056204795837402,15
2.5056204795837402,0
2.5056204795837402,16
2.5056204795837402,4
2.5056204795837402,1
2.5056204795837402,0
2.5056204795837402,9
2.5056204795837402,0
2.5056204795837402,2
2.616530179977417,12
2.616530179977417,9
2.616530179977417,0
2.616530179977417,5
2.616530179977417,1
2.616530179977417,0
2.616530179977417,16
2.616530179977417,2
2.616530179977417,6
2.616530179977417,4
2.7248423099517822,0
2.7248423099517822,8
2.7248423099517822,5
2.7248423099517822,7
2.7248423099517822,6
2.7248423099517822,0
2.7248423099517822,11
2.7248423099517822,0
2.7248423099517822,9
2.7248423099517822,0
2.7248423099517822,21
2.8242406845092773,0
2.8242406845092773,5
2.8242406845092773,4
2.8242406845092773,0
2.8242406845092773,2
2.8242406845092773,7
2.8242406845092773,0
2.8242406845092773,0
2.8242406845092773,16
2.8242406845092773,3
2.9379968643188477,12
2.9379968643188477,0
2.9379968643188477,2
2.9379968643188477,3
2.9379968643188477,6
2.9379968643188477,0
2.9379968643188477,1
2.939732551574707,12
2.939732551574707,2
2.939732551574707,18
2.939732551574707,10
3.0479793548583984,18
3.0479793548583984,0
3.0479793548583984,12
3.0479793548583984,6
3.0479793548583984,0
3.0479793548583984,8
3.0479793548583984,23
3.0479793548583984,1
3.0479793548583984,12
3.0479793548583984,15
3.157378673553467,15
3.157378673553467,7
3.157378673553467,0
3.157378673553467,9
3.157378673553467,9
3.157378673553467,40
3.157378673553467,18
3.157378673553467,16
3.157378673553467,7
3.157378673553467,7
3.1581013202667236,0
3.2530617713928223,27
3.2530617713928223,0
3.2530617713928223,24
3.2530617713928223,6
3.2530617713928223,5
3.2530617713928223,2
3.2530617713928223,34
3.2530617713928223,3
3.2530617713928223,3
3.2530617713928223,0
3.2530617713928223,0
3.3821823596954346,0
3.3821823596954346,3
3.3821823596954346,0
3.385929822921753,0
3.385929822921753,6
3.385929822921753,27
3.385929822921753,0
3.385929822921753,0
3.385929822921753,0
3.385929822921753,0
3.385929822921753,0
3.385929822921753,0
3.5016345977783203,4
3.5016345977783203,10
3.5016345977783203,5
3.5016345977783203,4
3.5016345977783203,16
3.5016345977783203,29
3.5016345977783203,30
3.5016345977783203,19
3.5016345977783203,1
3.5016345977783203,5
3.5016345977783203,5
3.6081552505493164,13
3.6081552505493164,8
3.6081552505493164,20
3.610161066055298,2
3.610161066055298,31
3.610161066055298,18
3.610161066055298,27
3.610161066055298,0
3.610161066055298,14
3.610161066055298,3
3.610161066055298,18
3.7155604362487793,32
3.7155604362487793,2
3.7155604362487793,0
3.7155604362487793,17
3.7155604362487793,3
3.7155604362487793,2
3.7155604362487793,23
3.7155604362487793,1
3.7155604362487793,10
3.7155604362487793,0
3.8086395263671875,20
3.8086395263671875,0
3.8086395263671875,8
3.8086395263671875,0
3.8086395263671875,1
3.8086395263671875,0
3.8086395263671875,5
3.8086395263671875,0
3.8086395263671875,3
3.8086395263671875,0
3.9205100536346436,3
3.9205100536346436,0
3.9205100536346436,3
3.9205100536346436,12
3.9205100536346436,3
3.9205100536346436,16
3.9205100536346436,9
3.9205100536346436,4
3.9205100536346436,3
3.9205100536346436,0
3.9205100536346436,0
4.01596212387085,8
4.01596212387085,3
4.01596212387085,21
4.01596212387085,0
4.01596212387085,4
4.01596212387085,14
4.01596212387085,5
4.01596212387085,22
4.01596212387085,10
4.127335786819458,19
4.127335786819458,6
4.127335786819458,18
4.127335786819458,11
4.127335786819458,15
4.127335786819458,31
4.127335786819458,23
4.127335786819458,17
4.127335786819458,30
4.127335786819458,26
4.127335786819458,29
4.222991943359375,14
4.222991943359375,10
4.222991943359375,29
4.222991943359375,0
4.222991943359375,21
4.222991943359375,3
4.222991943359375,32
4.222991943359375,0
4.222991943359375,29
4.222991943359375,0
4.334290981292725,30
4.3364503383636475,1
4.3364503383636475,12
4.3364503383636475,0
4.3364503383636475,9
4.3364503383636475,0
4.3364503383636475,4
4.3364503383636475,8
4.3364503383636475,0
4.3364503383636475,4
4.4410178661346436,7
4.4410178661346436,2
4.4410178661346436,3
4.4410178661346436,4
4.4410178661346436,7
4.4410178661346436,0
4.4410178661346436,17
4.4410178661346436,4
4.4410178661346436,7
4.4410178661346436,0
4.570866107940674,0
4.570866107940674,0
4.570866107940674,1
4.570866107940674,0
4.570866107940674,20
4.570866107940674,1
4.570866107940674,25
4.570866107940674,0
4.570866107940674,8
4.570866107940674,29
4.570866107940674,7
4.570866107940674,10
4.570866107940674,1
4.6852922439575195,0
4.6852922439575195,13
4.6852922439575195,9
4.6852922439575195,0
4.6852922439575195,14
4.6852922439575195,7
4.6852922439575195,0
4.6852922439575195,0
4.6852922439575195,25
4.687299013137817,25
4.687299013137817,0
4.792661905288696,15
4.792661905288696,9
4.792661905288696,26
4.792661905288696,19
4.792661905288696,10
4.792661905288696,0
4.792661905288696,15
4.792661905288696,1
4.792661905288696,23
4.792661905288696,9
4.792661905288696,17
4.888340473175049,2
4.888340473175049,36
4.888340473175049,38
4.888340473175049,40
4.888340473175049,22
4.888340473175049,25
4.888340473175049,31
4.888340473175049,27
4.888340473175049,25
4.888340473175049,15
4.994539737701416,19
4.994539737701416,35
4.994539737701416,15
4.994539737701416,2
4.994539737701416,8
4.994539737701416,17
4.994539737701416,11
4.994539737701416,28
4.994539737701416,13
4.994539737701416,6
5.094959259033203,0
5.094959259033203,3
5.094959259033203,2
5.094959259033203,29
5.094959259033203,0
5.094959259033203,0
5.094959259033203,2
5.094959259033203,0
5.094959259033203,0
5.094959259033203,0
5.206471681594849,2
5.206471681594849,0
5.206471681594849,0
5.206471681594849,0
5.206471681594849,12
5.206471681594849,0
5.206471681594849,13
5.206471681594849,2
5.206471681594849,20
5.206471681594849,15
5.302579879760742,9
5.302579879760742,0
5.302579879760742,26
5.302579879760742,10
5.302579879760742,23
5.302579879760742,1
5.302579879760742,25
5.302579879760742,18
5.302579879760742,55
5.302579879760742,10
5.414232969284058,42
5.414232969284058,14
5.414232969284058,18
5.414232969284058,17
5.414232969284058,13
5.414232969284058,17
5.414232969284058,12
5.414232969284058,26
5.414232969284058,15
5.414232969284058,8
5.414232969284058,10
5.52319073677063,0
5.52319073677063,13
5.52319073677063,31
5.52319073677063,15
5.52319073677063,28
5.52319073677063,15
5.52319073677063,3
5.52319073677063,0
5.52319073677063,18
5.52319073677063,1
5.629353284835815,4
5.629353284835815,6
5.629353284835815,5
5.629353284835815,0
5.629353284835815,1
5.629353284835815,0
5.629353284835815,8
5.629353284835815,6
5.629353284835815,11
5.629353284835815,4
5.629353284835815,3
5.733866930007935,16
5.733866930007935,9
5.733866930007935,2
5.733866930007935,33
5.733866930007935,15
5.733866930007935,32
5.733866930007935,1
5.733866930007935,19
5.733866930007935,15
5.733866930007935,24
5.845099925994873,8
5.845099925994873,11
5.845099925994873,6
5.845099925994873,40
5.845099925994873,19
5.845099925994873,23
5.845099925994873,25
5.845099925994873,31
5.845099925994873,34
5.845099925994873,41
5.845099925994873,30
5.95646333694458,26
5.95646333694458,21
5.95646333694458,29
5.95646333694458,4
5.95646333694458,27
5.95646333694458,11
5.95646333694458,24
5.95646333694458,1
5.95646333694458,33
5.95646333694458,23
5.95646333694458,7
5.95646333694458,20
6.068928480148315,10
6.068928480148315,0
6.068928480148315,6
6.068928480148315,0
6.068928480148315,8
6.068928480148315,1
6.068928480148315,1
6.068928480148315,0
6.068928480148315,14
6.068928480148315,9
6.068928480148315,6
6.181171417236328,6
6.181171417236328,0
6.181171417236328,4
6.181171417236328,20
6.181171417236328,2
6.181171417236328,0
6.181171417236328,5
6.181171417236328,8
6.181171417236328,11
6.181171417236328,27
6.276479244232178,29
6.276479244232178,7
6.276479244232178,25
6.276479244232178,14
6.276479244232178,31
6.276479244232178,8
6.276479244232178,21
6.276479244232178,21
6.276479244232178,21
6.276479244232178,17
6.371495723724365,18
6.371495723724365,26
6.371495723724365,27
6.371495723724365,8
6.371495723724365,25
6.371495723724365,27
6.371495723724365,37
6.371495723724365,36
6.371495723724365,22
6.371495723724365,2
6.466981887817383,22
6.466981887817383,12
6.466981887817383,25
6.466981887817383,6
6.466981887817383,15
6.466981887817383,3
6.466981887817383,22
6.466981887817383,12
6.466981887817383,15
6.5641090869903564,0
6.5641090869903564,5
6.5641090869903564,2
6.5641090869903564,17
6.5641090869903564,16
6.5641090869903564,0
6.5641090869903564,7
6.5641090869903564,0
6.5641090869903564,3
6.5641090869903564,4
6.673321962356567,0
6.673321962356567,2
6.673321962356567,5
6.673321962356567,0
6.673321962356567,6
6.673321962356567,10
6.673321962356567,22
6.673321962356567,36
6.673321962356567,28
6.7529895305633545,25
6.7529895305633545,20
6.7529895305633545,14
6.7529895305633545,29
6.7529895305633545,0
6.7529895305633545,7
6.7529895305633545,20
6.7529895305633545,43
6.7529895305633545,21
6.848780632019043,28
6.848780632019043,18
6.848780632019043,2
6.848780632019043,29
6.848780632019043,8
6.848780632019043,22
6.848780632019043,21
6.848780632019043,41
6.848780632019043,36
6.848780632019043,30
6.96034049987793,11
6.96034049987793,12
6.96034049987793,12
6.96034049987793,2
6.96034049987793,25
6.96034049987793,24
6.96034049987793,4
6.96034049987793,13
6.96034049987793,11
7.058260440826416,2
7.058260440826416,4
7.058692455291748,31
7.058692455291748,12
7.058692455291748,6
7.058692455291748,2
7.058692455291748,8
7.058692455291748,0
7.058692455291748,9
7.058692455291748,3
7.151147127151489,0
7.151147127151489,0
7.151147127151489,29
7.151147127151489,2
7.151147127151489,47
7.151147127151489,8
7.151147127151489,2
7.151147127151489,0
7.151147127151489,27
7.247001886367798,25
7.247001886367798,23
7.247001886367798,36
7.247001886367798,26
7.247001886367798,24
7.247001886367798,29
7.247001886367798,23
7.247001886367798,32
7.247001886367798,10
7.247001886367798,26
7.343195915222168,19
7.343195915222168,20
7.343195915222168,38
7.343195915222168,30
7.343195915222168,23
7.343195915222168,22
7.343195915222168,21
7.343195915222168,26
7.343195915222168,31
7.4482262134552,13
7.4482262134552,27
7.4482262134552,18
7.4482262134552,19
7.4482262134552,16
7.4482262134552,5
7.4482262134552,17
7.4482262134552,23
7.4482262134552,10
7.4482262134552,1
7.543283462524414,7
7.543283462524414,86
7.545288801193237,19
7.545288801193237,371
7.545288801193237,185
7.545288801193237,249
7.545288801193237,566
7.545288801193237,14
7.545288801193237,154
7.639276742935181,54
7.639276742935181,102
7.641282081604004,178
7.641282081604004,58
7.641282081604004,15
7.641282081604004,120
7.641282081604004,88
7.641282081604004,81
7.641282081604004,562
7.641282081604004,508
7.739330291748047,166
7.739330291748047,1023
7.739330291748047,72
7.739330291748047,222
7.739330291748047,144
7.739330291748047,659
7.739330291748047,479
7.739330291748047,21
7.739330291748047,133
7.739330291748047,91
7.835245609283447,64
7.835245609283447,307
7.835245609283447,34
7.835245609283447,37
7.835245609283447,48
7.835245609283447,11
7.835245609283447,36
7.835245609283447,58
7.835245609283447,0
7.835245609283447,162
7.942236423492432,240
7.942236423492432,287
7.942236423492432,308
7.942236423492432,39
7.942236423492432,236
7.944242238998413,78
7.944242238998413,203
7.944242238998413,0
7.944242238998413,122
8.044763326644897,71
8.044763326644897,122
8.044763326644897,1
8.044763326644897,20
8.044763326644897,120
8.044763326644897,265
8.044763326644897,122
8.044763326644897,73
8.044763326644897,75
8.044763326644897,0
8.136521339416504,31
8.136521339416504,14
8.136521339416504,201
8.136521339416504,117
8.136521339416504,225
8.136521339416504,159
8.146614789962769,195
8.146614789962769,40
8.146614789962769,129
8.146614789962769,4
8.242184162139893,275
8.242184162139893,229
8.242184162139893,187
8.242184162139893,55
8.242184162139893,29
8.242184162139893,498
8.242184162139893,175
8.242184162139893,201
8.242184162139893,86
8.242184162139893,77
8.327057361602783,116
8.327057361602783,32
8.327057361602783,41
8.327057361602783,77
8.327057361602783,83
8.327057361602783,13
8.327057361602783,34
8.327057361602783,41
8.327057361602783,238
8.424310684204102,447
8.424310684204102,64
8.424310684204102,74
8.424310684204102,65
8.424310684204102,192
8.424310684204102,42
8.424310684204102,225
8.424310684204102,221
8.424310684204102,15
8.529130697250366,24
8.529130697250366,5
8.529130697250366,64
8.529130697250366,39
8.53113603591919,242
8.53113603591919,71
8.53113603591919,85
8.53113603591919,27
8.53113603591919,7
8.53113603591919,15
8.622735738754272,159
8.622735738754272,54
8.622735738754272,46
8.622735738754272,94
8.624741792678833,35
8.624741792678833,74
8.624741792678833,110
8.624741792678833,25
8.624741792678833,15
8.7096107006073,132
8.7096107006073,261
8.7096107006073,98
8.7096107006073,7
8.7096107006073,75
8.7096107006073,44
8.7096107006073,33
8.7096107006073,39
8.7096107006073,263
8.7096107006073,8
8.81661868095398,95
8.81661868095398,119
8.81661868095398,37
8.81661868095398,0
8.81661868095398,17
8.81661868095398,48
8.81661868095398,123
8.81661868095398,125
8.81661868095398,37
8.915676355361938,229
8.915676355361938,0
8.915676355361938,384
8.915676355361938,207
8.915676355361938,62
8.915676355361938,12
8.915676355361938,1
8.915676355361938,26
8.915676355361938,85
8.915676355361938,54
9.010801315307617,49
9.010801315307617,128
9.010801315307617,168
9.010801315307617,48
9.010801315307617,91
9.010801315307617,243
9.010801315307617,101
9.010801315307617,81
9.010801315307617,81
9.10587215423584,18
9.10587215423584,1
9.10587215423584,151
9.10587215423584,151
9.10587215423584,66
9.10587215423584,40
9.10587215423584,18
9.10587215423584,54
9.10587215423584,95
9.200394630432129,18
9.200394630432129,27
9.200394630432129,91
9.200394630432129,62
9.200394630432129,74
9.200394630432129,77
9.200394630432129,22
9.200394630432129,60
9.200394630432129,24
9.200394630432129,55
9.298432111740112,61
9.298432111740112,25
9.298432111740112,157
9.298432111740112,242
9.298432111740112,49
9.298432111740112,39
9.298432111740112,18
9.298432111740112,7
9.298432111740112,76
9.298432111740112,53
9.403258800506592,53
9.408366441726685,69
9.408366441726685,2
9.408366441726685,26
9.408366441726685,234
9.408366441726685,142
9.408366441726685,32
9.408366441726685,34
9.408366441726685,1
9.408366441726685,92
9.503618955612183,216
9.503618955612183,212
9.503618955612183,184
9.503618955612183,51
9.503618955612183,49
9.503618955612183,5
9.503618955612183,116
9.503618955612183,112
9.503618955612183,112
9.59946060180664,78
9.59946060180664,0
9.59946060180664,63
9.59946060180664,118
9.59946060180664,105
9.59946060180664,42
9.59946060180664,3
9.59946060180664,90
9.59946060180664,23
9.698711156845093,37
9.698711156845093,82
9.698711156845093,98
9.698711156845093,7
9.698711156845093,92
9.698711156845093,147
9.698711156845093,2
9.698711156845093,23
9.698711156845093,44
9.698711156845093,20
9.789440631866455,17
9.789440631866455,56
9.789440631866455,69
9.789440631866455,121
9.789440631866455,29
9.789440631866455,72
9.789440631866455,120
9.789440631866455,18
9.789440631866455,8
9.789440631866455,44
9.889145374298096,1
9.889145374298096,49
9.889145374298096,89
9.889145374298096,8
9.890681505203247,22
9.890681505203247,72
9.890681505203247,84
9.890681505203247,37
9.890681505203247,9
9.979641199111938,158
9.979641199111938,95
9.979641199111938,5
9.979641199111938,35
9.979641199111938,12
9.979641199111938,77
9.979641199111938,4
9.979641199111938,18
9.979641199111938,90
10.075005531311035,122
10.075005531311035,45
10.075005531311035,59
10.075005531311035,12
10.075005531311035,43
10.075005531311035,62
10.075005531311035,57
10.075005531311035,24
10.075005531311035,69
10.075005531311035,36
10.18704080581665,30
10.18704080581665,21
10.18704080581665,197
10.18704080581665,54
10.18704080581665,41
10.18704080581665,68
10.18704080581665,42
10.18704080581665,106
10.18704080581665,13
10.18704080581665,88
10.28971266746521,36
10.28971266746521,47
10.28971266746521,2
10.28971266746521,44
10.291718244552612,36
10.291718244552612,31
10.291718244552612,3
10.291718244552612,43
10.291718244552612,38
10.291718244552612,52
10.394293785095215,25
10.394293785095215,52
10.394293785095215,3
10.394293785095215,106
10.394293785095215,444
10.394293785095215,22
10.394293785095215,16
10.394293785095215,39
10.394293785095215,431
10.396300315856934,909
10.49831247329712,72
10.49831247329712,144
10.49831247329712,5
10.49831247329712,408
10.499817609786987,636
10.499817609786987,118
10.499817609786987,326
10.499817609786987,69
10.499817609786987,40
10.499817609786987,10
10.604025602340698,26
10.604025602340698,5
10.604025602340698,43
10.604025602340698,40
10.604025602340698,17
10.604025602340698,43
10.604025602340698,7
10.604025602340698,14
10.604025602340698,171
10.604025602340698,136
10.604025602340698,0
10.702099084854126,1
10.702099084854126,29
10.702099084854126,48
10.702099084854126,296
10.702099084854126,286
10.702099084854126,75
10.702099084854126,3
10.702099084854126,36
10.702099084854126,50
10.702099084854126,43
10.802591562271118,19
10.802591562271118,27
10.802591562271118,97
10.802591562271118,41
10.802591562271118,212
10.802591562271118,138
10.802591562271118,0
10.802591562271118,37
10.802591562271118,12
10.802591562271118,90
10.900932788848877,86
10.900932788848877,15
10.900932788848877,5
10.900932788848877,0
10.900932788848877,5
10.900932788848877,9
10.900932788848877,5
10.900932788848877,19
10.900932788848877,9
10.900932788848877,17
11.010309219360352,0
11.010309219360352,36
11.010309219360352,0
11.010309219360352,5
11.010309219360352,6
11.010309219360352,1
11.010309219360352,5
11.010309219360352,64
11.010309219360352,8
11.010309219360352,2
11.11145567893982,24
11.11145567893982,5
11.11145567893982,15
11.11145567893982,7
11.11145567893982,22
11.11145567893982,10
11.11145567893982,21
11.11145567893982,2
11.11145567893982,18
11.11145567893982,0
11.201200246810913,49
11.201200246810913,24
11.201200246810913,43
11.201200246810913,36
11.201200246810913,27
11.201200246810913,8
11.201200246810913,18
11.201200246810913,8
11.201200246810913,25
11.303507089614868,21
11.303507089614868,14
11.303507089614868,22
11.303507089614868,35
11.303507089614868,24
11.303507089614868,22
11.30551266670227,16
11.30551266670227,32
11.30551266670227,54
11.401820421218872,33
11.401820421218872,10
11.401820421218872,24
11.401820421218872,5
11.401820421218872,39
11.401820421218872,14
11.401820421218872,15
11.401820421218872,3
11.401820421218872,11
11.401820421218872,14
11.5005784034729,38
11.5005784034729,53
11.5005784034729,11
11.5005784034729,8
11.5005784034729,1
11.5005784034729,0
11.5005784034729,0
11.5005784034729,0
11.5005784034729,0
11.5005784034729,9
11.597074031829834,5
11.597074031829834,2
11.597074031829834,7
11.597074031829834,15
11.597074031829834,14
11.597074031829834,15
11.59792160987854,2
11.59792160987854,29
11.59792160987854,8
11.692747354507446,30
11.692747354507446,13
11.692747354507446,40
11.692747354507446,32
11.692747354507446,0
11.692747354507446,25
11.692747354507446,52
11.692747354507446,32
11.692747354507446,36
11.692747354507446,12
11.79511570930481,88
11.79511570930481,68
11.79511570930481,31
11.79511570930481,21
11.79511570930481,30
11.79511570930481,22
11.79511570930481,24
11.79511570930481,47
11.79511570930481,51
11.893467426300049,21
11.893467426300049,26
11.893467426300049,5
11.893467426300049,19
11.893467426300049,17
11.893467426300049,1
11.893467426300049,29
11.893467426300049,31
11.893467426300049,10
11.893467426300049,4
11.993330955505371,19
11.993330955505371,8
11.993330955505371,8
11.993330955505371,0
11.993330955505371,4
11.993330955505371,8
11.993330955505371,5
11.993330955505371,6
11.993330955505371,6
11.993330955505371,1
12.088501930236816,11
12.088501930236816,2
12.088501930236816,6
12.088501930236816,8
12.088501930236816,67
12.088501930236816,3
12.088501930236816,8
12.088501930236816,0
12.088501930236816,0
12.088501930236816,11
12.184054851531982,7
12.184054851531982,4
12.184054851531982,0
12.184054851531982,13
12.184054851531982,29
12.184054851531982,6
12.184054851531982,22
12.184054851531982,32
12.184054851531982,28
12.28625226020813,6
12.28625226020813,27
12.28625226020813,29
12.28625226020813,29
12.28625226020813,4
12.28625226020813,39
12.28625226020813,19
12.28625226020813,26
12.28625226020813,20
12.28625226020813,40
12.381702423095703,35
12.381702423095703,14
12.381702423095703,2
12.381702423095703,25
12.383708238601685,25
12.383708238601685,22
12.383708238601685,35
12.383708238601685,15
12.383708238601685,5
12.477642059326172,14
12.477642059326172,21
12.477642059326172,13
12.477642059326172,8
12.477642059326172,0
12.477642059326172,0
12.477642059326172,0
12.477642059326172,1
12.477642059326172,2
12.477642059326172,1
12.580358028411865,0
12.580358028411865,1
12.580358028411865,0
12.580358028411865,1
12.580358028411865,7
12.580358028411865,7
12.580358028411865,0
12.580358028411865,1
12.580358028411865,0
12.580358028411865,7
12.691450357437134,4
12.691450357437134,17
12.691450357437134,8
12.691450357437134,4
12.691450357437134,15
12.691450357437134,16
12.691450357437134,6
12.691450357437134,29
12.691450357437134,15
12.691450357437134,36
12.796118974685669,36
12.796118974685669,34
12.796118974685669,18
12.796118974685669,22
12.796118974685669,17
12.796118974685669,28
12.796118974685669,0
12.796118974685669,22
12.796118974685669,14
12.796118974685669,35
12.796118974685669,37
12.899298667907715,23
12.899298667907715,11
12.899298667907715,13
12.899298667907715,14
12.899298667907715,40
12.899298667907715,17
12.899298667907715,2
12.899298667907715,19
12.899298667907715,11
12.90130352973938,5
13.010039806365967,14
13.010039806365967,9
13.010039806365967,22
13.010039806365967,8
13.010039806365967,20
13.010039806365967,1
13.010039806365967,10
13.010039806365967,3
13.010039806365967,3
13.010039806365967,2
13.010039806365967,0
13.116083860397339,17
13.116083860397339,0
13.116083860397339,0
13.116083860397339,2
13.116083860397339,9
13.116083860397339,22
13.116083860397339,8
13.116083860397339,2
13.116083860397339,27
13.116083860397339,10
13.217411518096924,6
13.217411518096924,13
13.217411518096924,35
13.217411518096924,9
13.217411518096924,42
13.217411518096924,46
13.217411518096924,24
13.217411518096924,21
13.217411518096924,24
13.217411518096924,34
13.311209917068481,36
13.311209917068481,13
13.311209917068481,22
13.311209917068481,20
13.311209917068481,32
13.311209917068481,22
13.311209917068481,24
13.311209917068481,20
13.311209917068481,18
13.311209917068481,9
13.41954779624939,37
13.421552896499634,39
13.421552896499634,30
13.421552896499634,15
13.421552896499634,22
13.421552896499634,15
13.421552896499634,17
13.421552896499634,21
13.421552896499634,16
13.421552896499634,12
13.516831874847412,10
13.516831874847412,12
13.516831874847412,2
13.516831874847412,1
13.516831874847412,11
13.516831874847412,1
13.516831874847412,1
13.516831874847412,7
13.516831874847412,4
13.516831874847412,5
13.61240816116333,3
13.61240816116333,8
13.61240816116333,13
13.61240816116333,5
13.61240816116333,10
13.61240816116333,5
13.61240816116333,17
13.61240816116333,35
13.61240816116333,18
13.61240816116333,22
13.707977771759033,13
13.707977771759033,37
13.707977771759033,1
13.707977771759033,6
13.707977771759033,16
13.707977771759033,32
13.707977771759033,18
13.707977771759033,46
13.707977771759033,17
13.819754600524902,39
13.819754600524902,13
13.819754600524902,47
13.819754600524902,45
13.819754600524902,13
13.819754600524902,19
13.819754600524902,13
13.819754600524902,23
13.819754600524902,14
13.819754600524902,21
13.914790868759155,21
13.914790868759155,1
13.914790868759155,10
13.914790868759155,16
13.914790868759155,24
13.914790868759155,30
13.914790868759155,16
13.914790868759155,13
13.914790868759155,13
13.914790868759155,3
14.011293649673462,5
14.011293649673462,1
14.011293649673462,12
14.011293649673462,3
14.011293649673462,1
14.011293649673462,9
14.011293649673462,1
14.011293649673462,4
14.011293649673462,9
14.10797381401062,0
14.10797381401062,3
14.10797381401062,16
14.10797381401062,4
14.10797381401062,12
14.10797381401062,11
14.10797381401062,34
14.10797381401062,6
14.10797381401062,41
14.10797381401062,3
14.208348512649536,21
14.208348512649536,8
14.208348512649536,18
14.208348512649536,8
14.208348512649536,26
14.208348512649536,11
14.208348512649536,14
14.208348512649536,19
14.208348512649536,40
14.208348512649536,17
14.308845043182373,13
14.308845043182373,22
14.308845043182373,32
14.308845043182373,38
14.308845043182373,34
14.308845043182373,18
14.308845043182373,6
14.308845043182373,23
14.308845043182373,26
14.411073446273804,12
14.411073446273804,12
14.411073446273804,25
14.411073446273804,14
14.411073446273804,10
14.411073446273804,9
14.411073446273804,2
14.411073446273804,2
14.411073446273804,7
14.411073446273804,13
14.509207963943481,0
14.509207963943481,4
14.509207963943481,2
14.509207963943481,14
14.509207963943481,7
14.509207963943481,6
14.509207963943481,9
14.509207963943481,6
14.509207963943481,0
14.509207963943481,5
14.609572649002075,13
14.609572649002075,0
14.609572649002075,2
14.609572649002075,0
14.609572649002075,9
14.609572649002075,27
14.609572649002075,40
14.609572649002075,10
14.609572649002075,14
14.609572649002075,9
14.706442832946777,4
14.706442832946777,9
14.706442832946777,33
14.706442832946777,12
14.706442832946777,32
14.706442832946777,45
14.706442832946777,32
14.706442832946777,27
14.706442832946777,30
14.802722454071045,29
14.802722454071045,27
14.802722454071045,9
14.802722454071045,15
14.802722454071045,35
14.802722454071045,31
14.802722454071045,10
14.802722454071045,23
14.802722454071045,11
14.895589828491211,20
14.895589828491211,17
14.895589828491211,25
14.895589828491211,22
14.895589828491211,5
14.895589828491211,7
14.895589828491211,7
14.895589828491211,1
14.895589828491211,0
14.895589828491211,16
14.996161460876465,6
14.996161460876465,26
14.996161460876465,0
14.996161460876465,5
14.996161460876465,16
14.996161460876465,0
14.996161460876465,0
14.996161460876465,5
14.996161460876465,0
15.091472387313843,10
15.091472387313843,16
15.091472387313843,16
15.091472387313843,6
15.091472387313843,17
15.091472387313843,3
15.091472387313843,20
15.092536211013794,28
15.092536211013794,32
15.092536211013794,27
15.186250925064087,3
15.186250925064087,6
15.186250925064087,35
15.186250925064087,2
15.186250925064087,6
15.186250925064087,19
15.186250925064087,33
15.186250925064087,19
15.186250925064087,20
15.281260251998901,13
15.281260251998901,43
15.281260251998901,27
15.281260251998901,41
15.281260251998901,14
15.281260251998901,5
15.281260251998901,13
15.281260251998901,39
15.281260251998901,11
15.281260251998901,6
15.37720251083374,22
15.37720251083374,6
15.37720251083374,9
15.37720251083374,15
15.37720251083374,6
15.37720251083374,4
15.37720251083374,9
15.37720251083374,35
15.37720251083374,6
15.477727890014648,1
15.477727890014648,1
15.477727890014648,10
15.477727890014648,5
15.477727890014648,17
15.477727890014648,3
15.477727890014648,5
15.477727890014648,8
15.477727890014648,9
15.477727890014648,17
15.569359302520752,22
15.569359302520752,16
15.569359302520752,2
15.569359302520752,11
15.569359302520752,8
15.569359302520752,3
15.569359302520752,4
15.569359302520752,37
15.569359302520752,17
15.672909021377563,14
15.672909021377563,31
15.672909021377563,13
15.672909021377563,12
15.672909021377563,22
15.672909021377563,36
15.672909021377563,23
15.672909021377563,39
15.672909021377563,18
15.672909021377563,31
15.769068717956543,25
15.769068717956543,24
15.769068717956543,33
15.769068717956543,40
15.769068717956543,30
15.771074771881104,26
15.771074771881104,9
15.771074771881104,29
15.771074771881104,24
15.892576932907104,14
15.892576932907104,2
15.892576932907104,14
15.892576932907104,0
15.892576932907104,12
15.892576932907104,15
15.892576932907104,7
15.892576932907104,23
15.892576932907104,25
15.892576932907104,5
15.892576932907104,0
15.892576932907104,1
16.026267290115356,2
16.026267290115356,1
16.026267290115356,6
16.026267290115356,5
16.026267290115356,8
16.026267290115356,11
16.026267290115356,4
16.026267290115356,14
16.026267290115356,3
16.026267290115356,3
16.026267290115356,17
16.026267290115356,3
16.026267290115356,34
16.026267290115356,3
16.026267290115356,22
16.168665170669556,17
16.168665170669556,17
16.168665170669556,16
16.168665170669556,31
16.168665170669556,5
16.168665170669556,18
16.168665170669556,13
16.168665170669556,37
16.168665170669556,23
16.168665170669556,39
16.168665170669556,63
16.168665170669556,34
16.27911901473999,13
16.27911901473999,29
16.27911901473999,25
16.27911901473999,19
16.27911901473999,14
16.27911901473999,29
16.27911901473999,20
16.27911901473999,20
16.27911901473999,4
16.27911901473999,6
16.27911901473999,24
16.27911901473999,14
16.412405252456665,6
16.412405252456665,28
16.412405252456665,6
16.412405252456665,1
16.412405252456665,2
16.412405252456665,11
16.412405252456665,1
16.412405252456665,1
16.412405252456665,2
16.412405252456665,6
16.412405252456665,5
16.412405252456665,8
16.522830486297607,15
16.522830486297607,1
16.522830486297607,2
16.522830486297607,5
16.522830486297607,3
16.522830486297607,22
16.522830486297607,16
16.522830486297607,19
16.522830486297607,2
16.522830486297607,2
16.522830486297607,4
16.628031492233276,20
16.628031492233276,17
16.628031492233276,24
16.628031492233276,38
16.628031492233276,21
16.628031492233276,44
16.628031492233276,10
16.628031492233276,22
16.628031492233276,35
16.628031492233276,26
16.628031492233276,18
16.73921537399292,24
16.73921537399292,18
16.73921537399292,36
16.73921537399292,10
16.73921537399292,23
16.73921537399292,86
16.73921537399292,25
16.73921537399292,29
16.73921537399292,29
16.73921537399292,3
16.73921537399292,36
16.84511637687683,1
16.84511637687683,1
16.84511637687683,18
16.84511637687683,211
16.84511637687683,314
16.84511637687683,202
16.84511637687683,28
16.84511637687683,110
16.84511637687683,334
16.84511637687683,299
16.945310592651367,364
16.945310592651367,334
16.945310592651367,65
16.945310592651367,184
16.945310592651367,128
16.945310592651367,512
16.945310592651367,7
16.945310592651367,19
16.945310592651367,121
16.945310592651367,45
17.04652452468872,479
17.04652452468872,964
17.04853081703186,151
17.04853081703186,47
17.04853081703186,98
17.04853081703186,151
17.04853081703186,198
17.04853081703186,235
17.04853081703186,84
17.150137186050415,111
17.150137186050415,286
17.150137186050415,25
17.150137186050415,607
17.150137186050415,49
17.150137186050415,145
17.150137186050415,2
17.150137186050415,628
17.150137186050415,275
17.150137186050415,187
17.25100541114807,125
17.25100541114807,421
17.25100541114807,623
17.25100541114807,150
17.25100541114807,33
17.25100541114807,12
17.25100541114807,1005
17.25100541114807,765
17.25100541114807,238
17.25100541114807,18
17.358108043670654,12
17.358108043670654,867
17.358108043670654,401
17.358108043670654,181
17.358108043670654,186
17.358108043670654,271
17.358108043670654,186
17.358108043670654,993
17.358108043670654,160
17.358108043670654,620
17.358108043670654,152
17.454126834869385,172
17.469995737075806,8
17.469995737075806,3
17.469995737075806,57
17.469995737075806,72
17.469995737075806,307
17.469995737075806,210
17.469995737075806,159
17.469995737075806,94
17.469995737075806,245
17.469995737075806,2
17.57797646522522,41
17.57797646522522,139
17.57797646522522,107
17.57797646522522,30
17.57797646522522,118
17.57797646522522,218
17.57797646522522,194
17.57797646522522,521
17.57797646522522,265
17.57797646522522,62
17.67961025238037,108
17.67961025238037,29
17.67961025238037,238
17.67961025238037,471
17.67961025238037,57
17.67961025238037,51
17.67961025238037,7
17.67961025238037,22
17.67961025238037,12
17.67961025238037,96
17.67961025238037,0
17.796671867370605,3
17.796671867370605,50
17.796671867370605,60
17.796671867370605,3
17.796671867370605,15
17.796671867370605,342
17.796671867370605,100
17.796671867370605,90
17.796671867370605,276
17.796671867370605,525
17.796671867370605,595
17.905362606048584,104
17.905362606048584,27
17.905362606048584,1
17.905362606048584,415
17.905362606048584,81
17.905362606048584,128
17.905362606048584,49
17.905362606048584,186
17.905362606048584,61
17.905362606048584,21
18.010581731796265,170
18.010581731796265,83
18.010581731796265,203
18.010581731796265,54
18.010581731796265,62
18.010581731796265,125
18.010581731796265,145
18.010581731796265,19
18.010581731796265,71
18.010581731796265,39
18.010581731796265,165
18.121462106704712,7
18.121462106704712,176
18.121462106704712,67
18.121462106704712,70
18.121462106704712,80
18.121462106704712,15
18.121462106704712,13
18.121462106704712,249
18.121462106704712,51
18.121462106704712,132
18.121462106704712,5
18.216013193130493,194
18.216013193130493,26
18.216013193130493,9
18.232114553451538,133
18.232114553451538,162
18.232114553451538,176
18.232114553451538,99
18.232114553451538,17
18.232114553451538,147
18.232114553451538,134
18.327884912490845,347
18.327884912490845,352
18.327884912490845,193
18.327884912490845,59
18.327884912490845,110
18.327884912490845,167
18.327884912490845,227
18.327884912490845,138
18.327884912490845,48
18.327884912490845,53
18.327884912490845,156
18.440195560455322,1
18.440195560455322,7
18.440195560455322,15
18.440195560455322,256
18.440195560455322,238
18.440195560455322,106
18.440195560455322,30
18.440195560455322,284
18.440195560455322,148
18.440195560455322,74
18.550403594970703,159
18.550403594970703,75
18.550403594970703,144
18.550403594970703,76
18.550403594970703,8
18.550403594970703,111
18.550403594970703,74
18.550403594970703,156
18.550403594970703,18
18.550403594970703,19
18.65335440635681,6
18.65335440635681,58
18.65335440635681,185
18.65335440635681,96
18.65335440635681,44
18.65335440635681,0
18.65335440635681,98
18.65335440635681,200
18.65335440635681,97
18.65335440635681,145
18.752311944961548,399
18.752311944961548,3
18.752311944961548,148
18.752311944961548,136
18.752311944961548,83
18.752311944961548,272
18.752311944961548,270
18.752311944961548,53
18.752311944961548,0
18.752311944961548,97
18.851173400878906,126
18.851173400878906,54
18.851173400878906,213
18.851173400878906,99
18.851173400878906,347
18.851173400878906,158
18.851173400878906,125
18.851173400878906,27
18.851173400878906,5
18.851173400878906,25
18.956436157226562,51
18.956436157226562,84
18.956436157226562,79
18.956436157226562,495
18.956436157226562,252
18.956436157226562,173
18.956436157226562,125
18.956436157226562,102
18.956436157226562,184
18.956436157226562,109
19.058513641357422,87
19.058513641357422,238
19.058513641357422,13
19.058513641357422,223
19.058513641357422,43
19.058513641357422,21
19.058513641357422,1
19.058513641357422,203
19.058513641357422,273
19.058513641357422,115
19.152042865753174,202
19.152042865753174,94
19.152042865753174,72
19.152042865753174,10
19.152042865753174,244
19.152042865753174,363
19.152042865753174,219
19.152042865753174,105
19.152042865753174,61
19.152042865753174,91
19.263976097106934,126
19.263976097106934,724
19.263976097106934,67
19.263976097106934,149
19.263976097106934,1
19.263976097106934,92
19.263976097106934,194
19.263976097106934,52
19.263976097106934,7
19.263976097106934,80
19.37355899810791,45
19.37355899810791,38
19.37355899810791,79
19.37355899810791,29
19.37355899810791,93
19.37355899810791,15
19.37355899810791,151
19.37355899810791,216
19.37355899810791,31
19.37355899810791,91
19.37355899810791,15
19.46859359741211,243
19.46859359741211,393
19.46859359741211,72
19.46859359741211,58
19.46859359741211,10
19.46859359741211,449
19.46859359741211,355
19.46859359741211,231
19.46859359741211,268
19.564005613327026,94
19.564005613327026,94
19.564005613327026,65
19.564005613327026,8
19.564005613327026,178
19.564005613327026,55
19.564005613327026,133
19.564005613327026,26
19.564005613327026,1
19.564005613327026,8
19.660006761550903,83
19.660006761550903,2
19.660006761550903,32
19.660006761550903,42
19.660006761550903,3
19.660006761550903,268
19.660006761550903,109
19.660006761550903,65
19.660006761550903,45
19.75738263130188,47
19.75738263130188,17
19.75738263130188,2
19.75738263130188,251
19.75738263130188,159
19.759387969970703,1023
19.759387969970703,630
19.759387969970703,153
19.759387969970703,43
19.851253271102905,22
19.851253271102905,58
19.851253271102905,185
19.851253271102905,118
19.851253271102905,153
19.851253271102905,26
19.851253271102905,16
19.851253271102905,13
19.851253271102905,62
19.851253271102905,7
19.946213960647583,88
19.946213960647583,0
19.946213960647583,27
19.946213960647583,157
19.946213960647583,19
19.946213960647583,19
19.946213960647583,16
19.946213960647583,15
19.946213960647583,560
20.042376041412354,342
20.042376041412354,71
20.042376041412354,77
20.042376041412354,11
20.042376041412354,147
20.042376041412354,200
20.042376041412354,256
20.042376041412354,200
20.042376041412354,86
20.137859582901,15
20.137859582901,157
20.137859582901,25
20.137859582901,187
20.137859582901,186
20.137859582901,75
20.137859582901,16
20.137859582901,173
20.137859582901,193
20.137859582901,18
20.235206604003906,48
20.235206604003906,29
20.235206604003906,10
20.235206604003906,4
20.235206604003906,44
20.235206604003906,1
20.237212657928467,26
20.237212657928467,25
20.237212657928467,12
20.329745769500732,192
20.329745769500732,80
20.329745769500732,28
20.329745769500732,41
20.329745769500732,2
20.329745769500732,50
20.329745769500732,1
20.329745769500732,14
20.329745769500732,1
20.42242407798767,105
20.42242407798767,125
20.42242407798767,128
20.42242407798767,21
20.42242407798767,83
20.42242407798767,1
20.42242407798767,39
20.42242407798767,22
20.42242407798767,197
20.42242407798767,1
20.534430980682373,50
20.534430980682373,47
20.534430980682373,73
20.534430980682373,107
20.534430980682373,55
20.534430980682373,1
20.534430980682373,76
20.534430980682373,65
20.534430980682373,56
20.534430980682373,29
20.629300832748413,57
20.629300832748413,0
20.629300832748413,14
20.629300832748413,81
20.629300832748413,18
20.629300832748413,5
20.629300832748413,26
20.629300832748413,0
20.629300832748413,27
20.629300832748413,86
20.72413158416748,16
20.72413158416748,10
20.72413158416748,5
20.72413158416748,1
20.72413158416748,16
20.72413158416748,92
20.72413158416748,27
20.72413158416748,47
20.72413158416748,0
20.72413158416748,40
20.83542823791504,31
20.83542823791504,1
20.83542823791504,5
20.83542823791504,9
20.83542823791504,1
20.83542823791504,14
20.83542823791504,11
20.83542823791504,0
20.83542823791504,8
20.83542823791504,0
20.940780878067017,0
20.940780878067017,36
20.940780878067017,123
20.940780878067017,160
20.940780878067017,52
20.940780878067017,7
20.940780878067017,1
20.940780878067017,14
20.940780878067017,0
20.940780878067017,31
21.044360160827637,30
21.044360160827637,0
21.044360160827637,33
21.044360160827637,9
21.044360160827637,46
21.044360160827637,6
21.044360160827637,25
21.044360160827637,2
21.044360160827637,13
21.044360160827637,10
21.147642612457275,44
21.147642612457275,25
21.147642612457275,15
21.147642612457275,2
21.147642612457275,5
21.147642612457275,4
21.147642612457275,11
21.147642612457275,0
21.147642612457275,5
21.147642612457275,2
21.24879264831543,7
21.24879264831543,5
21.24879264831543,41
21.24879264831543,0
21.24879264831543,12
21.24879264831543,11
21.24879264831543,22
21.24879264831543,2
21.24879264831543,7
21.24879264831543,16
21.24879264831543,36
21.35317349433899,15
21.35317349433899,22
21.35317349433899,36
21.35317349433899,32
21.35317349433899,43
21.35317349433899,33
21.35317349433899,53
21.35317349433899,27
21.35317349433899,67
21.35317349433899,26
21.456105947494507,39
21.456105947494507,15
21.456105947494507,54
21.456105947494507,16
21.456105947494507,61
21.456105947494507,35
21.456105947494507,53
21.456105947494507,15
21.456105947494507,34
21.456105947494507,41
21.548832654953003,38
21.548832654953003,7
21.548832654953003,26
21.548832654953003,24
21.548832654953003,33
21.548832654953003,16
21.548832654953003,8
21.548832654953003,31
21.548832654953003,6
21.655038118362427,0
21.655038118362427,3
21.655038118362427,3
21.655038118362427,0
21.655038118362427,0
21.655038118362427,2
21.655038118362427,0
21.655038118362427,0
21.655038118362427,5
21.655038118362427,16
21.750871181488037,0
21.75558352470398,17
21.75558352470398,0
21.75558352470398,40
21.75558352470398,18
21.75558352470398,8
21.75558352470398,18
21.75558352470398,17
21.75558352470398,2
21.75558352470398,9
21.85192108154297,35
21.85192108154297,14
21.85192108154297,41
21.85192108154297,33
21.85192108154297,42
21.85192108154297,45
21.85192108154297,50
21.85192108154297,12
21.85192108154297,44
21.85192108154297,8
21.95504379272461,71
21.95504379272461,26
21.95504379272461,55
21.95504379272461,0
21.95504379272461,24
21.95504379272461,0
21.95504379272461,46
21.95504379272461,5
21.95504379272461,40
21.95504379272461,12
22.05535078048706,5
22.05535078048706,1
22.05535078048706,3
22.05535078048706,36
22.05535078048706,1
22.05535078048706,1
22.05535078048706,14
22.05535078048706,2
22.05535078048706,14
22.05535078048706,0
22.15310049057007,0
22.15310049057007,25
22.15310049057007,20
22.15310049057007,9
22.15310049057007,0
22.15310049057007,3
22.15310049057007,6
22.15310049057007,5
22.15310049057007,21
22.24911117553711,1
22.24911117553711,2
22.24911117553711,1
22.24911117553711,71
22.24911117553711,0
22.24911117553711,4
22.24911117553711,1
22.24911117553711,4
22.24911117553711,0
22.24911117553711,0
22.355106115341187,0
22.355106115341187,5
22.355106115341187,21
22.355106115341187,4
22.355106115341187,6
22.355106115341187,16
22.355106115341187,0
22.355106115341187,0
22.355106115341187,0
22.355106115341187,4
22.45542025566101,5
22.45542025566101,28
22.45542025566101,1
22.45542025566101,24
22.45542025566101,9
22.45542025566101,5
22.45542025566101,31
22.45542025566101,0
22.45542025566101,10
22.45542025566101,2
22.56445288658142,9
22.56445288658142,8
22.56445288658142,29
22.56445288658142,0
22.56445288658142,10
22.56445288658142,6
22.56445288658142,14
22.56445288658142,1
22.566458225250244,9
22.566458225250244,12
22.566458225250244,0
22.667024850845337,5
22.667024850845337,1
22.667024850845337,0
22.667024850845337,22
22.667024850845337,0
22.667024850845337,12
22.667024850845337,9
22.667024850845337,3
22.667024850845337,3
22.756064653396606,12
22.756064653396606,15
22.756064653396606,5
22.771830558776855,8
22.771830558776855,49
22.771830558776855,12
22.771830558776855,32
22.771830558776855,2
22.771830558776855,45
22.771830558776855,27
22.771830558776855,27
22.87326169013977,49
22.87326169013977,33
22.87326169013977,60
22.87326169013977,26
22.87326169013977,33
22.87326169013977,19
22.87326169013977,59
22.87326169013977,22
22.87326169013977,67
22.87326169013977,48
22.972575187683105,60
22.972575187683105,20
22.972575187683105,56
22.972575187683105,12
22.972575187683105,40
22.972575187683105,38
22.972575187683105,37
22.972575187683105,3
22.972575187683105,39
23.073179721832275,27
23.073179721832275,11
23.073179721832275,1
23.073179721832275,28
23.073179721832275,1
23.073179721832275,9
23.073179721832275,8
23.073179721832275,6
23.073179721832275,4
23.073179721832275,1
23.168299198150635,0
23.168299198150635,0
23.168299198150635,2
23.168299198150635,21
23.168299198150635,20
23.168299198150635,27
23.168299198150635,1
23.168299198150635,17
23.168299198150635,7
23.168299198150635,43
23.263587951660156,15
23.263587951660156,32
23.263587951660156,13
23.263587951660156,25
23.263587951660156,0
23.263587951660156,37
23.263587951660156,25
23.263587951660156,40
23.263587951660156,49
23.263587951660156,55
23.359168529510498,48
23.359168529510498,27
23.359168529510498,47
23.359168529510498,15
23.359168529510498,50
23.359168529510498,30
23.359168529510498,73
23.359168529510498,37
23.359168529510498,73
23.46899938583374,9
23.46899938583374,34
23.46899938583374,18
23.46899938583374,60
23.46899938583374,5
23.46899938583374,34
23.470747232437134,0
23.470747232437134,30
23.470747232437134,0
23.470747232437134,29
23.569490432739258,31
23.569490432739258,17
23.569490432739258,3
23.569490432739258,33
23.569490432739258,3
23.569490432739258,5
23.569490432739258,4
23.569490432739258,2
23.569490432739258,2
23.569490432739258,3
23.661858797073364,0
23.661858797073364,16
23.661858797073364,4
23.661858797073364,3
23.661858797073364,2
23.661858797073364,18
23.661858797073364,9
23.661858797073364,23
23.661858797073364,6
23.661858797073364,19
23.76854920387268,9
23.76854920387268,57
23.76854920387268,37
23.76854920387268,39
23.76854920387268,12
23.76854920387268,40
23.76854920387268,40
23.76854920387268,51
23.76854920387268,74
23.76854920387268,6
23.865490674972534,32
23.865490674972534,25
23.865490674972534,48
23.865490674972534,64
23.865490674972534,48
23.865490674972534,17
23.865490674972534,58
23.865490674972534,37
23.865490674972534,46
23.96967387199402,19
23.96967387199402,49
23.96967387199402,8
23.96967387199402,32
23.96967387199402,6
23.96967387199402,26
23.96967387199402,0
23.96967387199402,6
23.96967387199402,3
23.96967387199402,31
24.07118844985962,8
24.07118844985962,12
24.073193550109863,11
24.073193550109863,13
24.073193550109863,5
24.073193550109863,9
24.073193550109863,9
24.073193550109863,1
24.073193550109863,6
24.073193550109863,2
24.170777082443237,9
24.170777082443237,1
24.170777082443237,35
24.170777082443237,0
24.170777082443237,1
24.170777082443237,9
24.170777082443237,5
24.170777082443237,10
24.170777082443237,7
24.170777082443237,20
24.170777082443237,7
24.285511016845703,7
24.285511016845703,11
24.285511016845703,3
24.285511016845703,1
24.285511016845703,2
24.285511016845703,3
24.285511016845703,25
24.285511016845703,5
24.285511016845703,31
24.285511016845703,38
24.391964435577393,57
24.391964435577393,35
24.391964435577393,21
24.391964435577393,10
24.391964435577393,51
24.391964435577393,22
24.391964435577393,47
24.391964435577393,23
24.391964435577393,26
24.391964435577393,22
24.391964435577393,17
24.487276554107666,21
24.487276554107666,16
24.487276554107666,29
24.487276554107666,9
24.487276554107666,35
24.496569871902466,36
24.496569871902466,45
24.496569871902466,25
24.496569871902466,16
24.496569871902466,23
24.59802508354187,14
24.59802508354187,24
24.59802508354187,10
24.59802508354187,28
24.59802508354187,6
24.59802508354187,24
24.59802508354187,11
24.59802508354187,26
24.59802508354187,7
24.59802508354187,31
24.774116277694702,9
24.774116277694702,13
24.774116277694702,6
24.774116277694702,10
24.774116277694702,1
24.774116277694702,6
24.774116277694702,1
24.774116277694702,5
24.774116277694702,35
24.774116277694702,1
24.774116277694702,7
24.774116277694702,51
24.774116277694702,30
24.774116277694702,20
24.774116277694702,36
24.774116277694702,31
24.774116277694702,30
24.90776753425598,8
24.90776753425598,23
24.90776753425598,34
24.90776753425598,32
24.90776753425598,6
24.90776753425598,20
24.90776753425598,15
24.90776753425598,35
24.90776753425598,19
24.90776753425598,33
24.90776753425598,22
24.90776753425598,33
24.90776753425598,14
24.90776753425598,9
25.010327339172363,22
25.010327339172363,34
25.010327339172363,39
25.010327339172363,4
25.010327339172363,24
25.010327339172363,40
25.010327339172363,33
25.010327339172363,25
25.010327339172363,31
25.117095232009888,6
25.117095232009888,7
25.117095232009888,18
25.117095232009888,38
25.117095232009888,18
25.117095232009888,0
25.117095232009888,5
25.117095232009888,4
25.117095232009888,4
25.117095232009888,5
25.117095232009888,4
25.222778797149658,1
25.222778797149658,11
25.222778797149658,4
25.222778797149658,5
25.222778797149658,21
25.22739028930664,8
25.22739028930664,19
25.22739028930664,6
25.22739028930664,32
25.22739028930664,7
25.32865333557129,12
25.32865333557129,27
25.32865333557129,20
25.32865333557129,19
25.32865333557129,44
25.32865333557129,15
25.32865333557129,27
25.32865333557129,18
25.32865333557129,7
25.32865333557129,9
25.32865333557129,30
25.434227466583252,27
25.434227466583252,40
25.434227466583252,41
25.434227466583252,38
25.434227466583252,70
25.434227466583252,52
25.434227466583252,49
25.434227466583252,48
25.434227466583252,17
25.434227466583252,42
25.534579038619995,19
25.534579038619995,9
25.534579038619995,26
25.534579038619995,20
25.534579038619995,10
25.534579038619995,25
25.534579038619995,19
25.534579038619995,21
25.534579038619995,1
25.534579038619995,9
25.630331993103027,4
25.630331993103027,3
25.630331993103027,5
25.630331993103027,0
25.630331993103027,4
25.630331993103027,10
25.630331993103027,1
25.630331993103027,0
25.630331993103027,14
25.630331993103027,0
25.891372203826904,1
25.891372203826904,7
25.891372203826904,8
25.891372203826904,0
25.891372203826904,17
25.89188051223755,1
25.89188051223755,13
25.89188051223755,2
25.89188051223755,32
25.89188051223755,28
25.89188051223755,47
25.89188051223755,21
25.89188051223755,33
25.89188051223755,28
25.89188051223755,33
25.89188051223755,32
25.89188051223755,30
25.893471479415894,15
25.893471479415894,42
25.893471479415894,21
25.893471479415894,33
25.893471479415894,38
25.893471479415894,26
25.893471479415894,36
25.893471479415894,34
26.054423332214355,45
26.054423332214355,23
26.054423332214355,29
26.054423332214355,5
26.054423332214355,9
26.054423332214355,23
26.054423332214355,12
26.054423332214355,23
26.054423332214355,1
26.054423332214355,33
26.054423332214355,14
26.054423332214355,21
26.054423332214355,22
26.054423332214355,4
26.054423332214355,0
26.054423332214355,2
26.18583059310913,0
26.18583059310913,12
26.18583059310913,24
26.18583059310913,1
26.18583059310913,3
26.18583059310913,10
26.18583059310913,14
26.18583059310913,16
26.18583059310913,0
26.18583059310913,4
26.18583059310913,24
26.18583059310913,0
26.18583059310913,9
26.35561490058899,2
26.35561490058899,47
26.35561490058899,26
26.35561490058899,57
26.35561490058899,24
26.35561490058899,35
26.35561490058899,9
26.35901951789856,20
26.35901951789856,3
26.35901951789856,24
26.35901951789856,31
26.35901951789856,30
26.35901951789856,18
26.35901951789856,13
26.35901951789856,39
26.35901951789856,41
26.537259817123413,22
26.537259817123413,25
26.54516077041626,37
26.54516077041626,27
26.54516077041626,43
26.54516077041626,37
26.54516077041626,5
26.54516077041626,15
26.54516077041626,29
26.54516077041626,22
26.54516077041626,4
26.54516077041626,14
26.54516077041626,12
26.54516077041626,15
26.54516077041626,9
26.54516077041626,34
26.54516077041626,1
26.54516077041626,2
26.54516077041626,3
26.725454330444336,8
26.725454330444336,3
26.725454330444336,0
26.725454330444336,15
26.725454330444336,0
26.725454330444336,17
26.725454330444336,0
26.725454330444336,0
26.725454330444336,9
26.725454330444336,6
26.725454330444336,0
26.725454330444336,18
26.725454330444336,5
26.730354070663452,14
26.730354070663452,6
26.730354070663452,11
26.730354070663452,28
26.730354070663452,8
26.87819766998291,13
26.87819766998291,27
26.87819766998291,11
26.87819766998291,39
26.87819766998291,3
26.87819766998291,33
26.87819766998291,14
26.87819766998291,37
26.87819766998291,49
26.87819766998291,25
26.87819766998291,24
26.87819766998291,33
26.87819766998291,26
26.87819766998291,31
26.995290994644165,38
26.995290994644165,35
26.995290994644165,15
26.995290994644165,33
26.995290994644165,33
26.995290994644165,64
26.995290994644165,36
26.995290994644165,39
26.995290994644165,17
26.995290994644165,11
26.995290994644165,6
26.995290994644165,3
26.995290994644165,8
27.195826053619385,6
27.195826053619385,11
27.195826053619385,4
27.195826053619385,0
27.19633460044861,2
27.19633460044861,9
27.19633460044861,7
27.19633460044861,4
27.19633460044861,0
27.19633460044861,6
27.19633460044861,27
27.19633460044861,13
27.19633460044861,38
27.196841716766357,19
27.196841716766357,36
27.196841716766357,1
27.196841716766357,4
27.196841716766357,37
27.31312322616577,20
27.31312322616577,41
27.31312322616577,30
27.31312322616577,58
27.31312322616577,105
27.31312322616577,92
27.31312322616577,3
27.31312322616577,163
27.31312322616577,28
27.31312322616577,134
27.314130544662476,35
27.314130544662476,29
27.4357807636261,126
27.4357807636261,143
27.4357807636261,9
27.4357807636261,10
27.4357807636261,80
27.4357807636261,92
27.4357807636261,876
27.4357807636261,820
27.4357807636261,74
27.4357807636261,11
27.4357807636261,461
27.4357807636261,75
27.551613330841064,957
27.551613330841064,772
27.551613330841064,780
27.551613330841064,973
27.551613330841064,35
27.551613330841064,694
27.551613330841064,498
27.551613330841064,455
27.551613330841064,649
27.551613330841064,220
27.551613330841064,322
27.551613330841064,50
27.675386667251587,897
27.675386667251587,430
27.675386667251587,221
27.675386667251587,151
27.675386667251587,126
27.675386667251587,228
27.675386667251587,194
27.675386667251587,275
27.675386667251587,137
27.675386667251587,477
27.675386667251587,1023
27.806350469589233,683
27.806350469589233,279
27.806350469589233,540
27.806350469589233,300
27.806350469589233,182
27.806350469589233,77
27.806350469589233,1
27.806350469589233,32
27.806350469589233,536
27.806350469589233,108
27.806350469589233,145
27.806350469589233,607
27.806350469589233,277
27.806350469589233,0
28.013155698776245,180
28.013155698776245,276
28.013155698776245,99
28.013155698776245,4
28.013155698776245,31
28.013155698776245,170
28.013155698776245,4
28.013155698776245,435
28.013155698776245,219
28.013155698776245,78
28.013155698776245,63
28.013155698776245,47
28.013155698776245,200
28.013155698776245,154
28.013155698776245,104
28.013155698776245,55
28.013155698776245,52
28.013155698776245,51
28.013155698776245,19
28.013155698776245,156
28.15645933151245,214
28.15645933151245,120
28.15645933151245,67
28.15645933151245,94
28.15645933151245,363
28.15645933151245,10
28.15645933151245,58
28.15645933151245,31
28.15645933151245,122
28.15645933151245,126
28.15645933151245,15
28.15645933151245,266
28.15645933151245,173
28.15645933151245,24
28.263654470443726,149
28.263654470443726,103
28.263654470443726,22
28.263654470443726,32
28.263654470443726,84
28.263654470443726,196
28.263654470443726,194
28.263654470443726,149
28.263654470443726,168
28.263654470443726,374
28.362361669540405,120
28.362361669540405,10
28.362361669540405,49
28.362361669540405,89
28.362361669540405,78
28.362361669540405,262
28.362361669540405,48
28.362361669540405,129
28.362361669540405,5
28.362361669540405,10
28.457945346832275,3
28.457945346832275,133
28.457945346832275,3
28.457945346832275,84
28.457945346832275,26
28.457945346832275,54
28.457945346832275,115
28.457945346832275,30
28.457945346832275,34
28.457945346832275,2
28.57241725921631,33
28.57241725921631,123
28.57241725921631,214
28.57241725921631,28
28.57241725921631,146
28.57241725921631,52
28.57241725921631,54
28.57241725921631,72
28.57241725921631,30
28.57241725921631,17
28.67397403717041,307
28.67397403717041,163
28.67397403717041,6
28.67397403717041,42
28.67397403717041,49
28.67397403717041,106
28.67397403717041,69
28.67397403717041,31
28.67397403717041,76
28.67397403717041,7
28.775310516357422,12
28.775310516357422,34
28.775310516357422,124
28.775310516357422,112
28.775310516357422,129
28.775310516357422,21
28.775310516357422,1
28.775310516357422,49
28.775310516357422,19
28.775310516357422,241
28.870387315750122,144
28.870387315750122,122
28.870387315750122,34
28.870387315750122,49
28.870387315750122,155
28.870387315750122,25
28.870387315750122,249
28.870387315750122,39
28.870387315750122,125
28.870387315750122,102
28.979833602905273,188
28.979833602905273,8
28.979833602905273,76
28.979833602905273,3
28.979833602905273,52
28.979833602905273,3
28.979833602905273,124
28.979833602905273,86
28.979833602905273,150
28.979833602905273,152
29.077659606933594,725
29.077659606933594,491
29.077659606933594,192
29.077659606933594,6
29.077659606933594,65
29.077659606933594,75
29.077659606933594,226
29.077659606933594,119
29.077659606933594,61
29.077659606933594,37
29.197407007217407,110
29.197407007217407,184
29.197407007217407,388
29.197407007217407,100
29.197407007217407,236
29.197407007217407,183
29.199411630630493,264
29.199411630630493,35
29.199411630630493,3
29.199411630630493,11
29.199411630630493,145
29.300501585006714,105
29.300501585006714,247
29.300501585006714,169
29.300501585006714,366
29.300501585006714,182
29.300501585006714,890
29.300501585006714,258
29.300501585006714,154
29.300501585006714,6
29.300501585006714,39
29.300501585006714,28
29.412396669387817,284
29.412396669387817,94
29.412396669387817,78
29.412396669387817,439
29.412396669387817,111
29.412396669387817,5
29.412396669387817,29
29.412396669387817,89
29.412396669387817,31
29.412396669387817,47
29.412396669387817,197
29.54010820388794,1
29.54010820388794,45
29.54010820388794,6
29.54010820388794,203
29.54010820388794,285
29.54010820388794,98
29.54010820388794,428
29.54010820388794,58
29.54010820388794,32
29.54010820388794,187
29.54010820388794,119
29.54010820388794,96
29.71457862854004,48
29.71457862854004,55
29.71457862854004,2
29.71457862854004,320
29.71457862854004,89
29.71457862854004,106
29.71457862854004,169
29.71457862854004,100
29.71457862854004,11
29.71457862854004,162
29.71457862854004,156
29.71457862854004,307
29.71457862854004,236
29.71457862854004,146
29.71457862854004,56
29.71457862854004,39
29.71457862854004,93
29.822574615478516,242
29.822574615478516,133
29.822574615478516,60
29.824580430984497,24
29.824580430984497,90
29.824580430984497,205
29.824580430984497,56
29.824580430984497,61
29.824580430984497,105
29.824580430984497,117
29.90541434288025,11
29.90541434288025,110
29.90541434288025,225
29.90541434288025,260
29.90541434288025,110
29.90541434288025,100
29.90541434288025,42
29.90541434288025,464
29.90541434288025,179
30.011688470840454,107
30.011688470840454,4
30.011688470840454,183
30.011688470840454,100
30.011688470840454,66
30.011688470840454,35
30.011688470840454,44
30.011688470840454,191
30.011688470840454,103
30.011688470840454,41
30.107351064682007,100
30.107351064682007,357
30.107351064682007,557
30.107351064682007,131
30.107351064682007,101
30.107351064682007,110
30.107351064682007,378
30.107351064682007,821
30.107351064682007,107
30.205482721328735,32
30.205482721328735,53
30.205482721328735,401
30.205482721328735,164
30.205482721328735,212
30.205482721328735,86
30.205482721328735,297
30.205482721328735,125
30.205482721328735,140
30.205482721328735,101
30.32044005393982,1023
30.32044005393982,879
30.32044005393982,192
30.32044005393982,111
30.32044005393982,213
30.32044005393982,7
30.32044005393982,291
30.32044005393982,45
30.32044005393982,89
30.32044005393982,346
30.32044005393982,482
30.423657655715942,187
30.423657655715942,248
30.423657655715942,186
30.423657655715942,25
30.425663232803345,7
30.425663232803345,32
30.425663232803345,5
30.425663232803345,25
30.425663232803345,386
30.425663232803345,515
30.522674560546875,65
30.522674560546875,220
30.522674560546875,39
30.522674560546875,80
30.522674560546875,9
30.522674560546875,43
30.522674560546875,0
30.522674560546875,0
30.522674560546875,13
30.522674560546875,22
30.61868143081665,14
30.61868143081665,47
30.61868143081665,141
30.61868143081665,245
30.61868143081665,37
30.61868143081665,52
30.61868143081665,4
30.61868143081665,14
30.61868143081665,2
30.61868143081665,112
30.73167848587036,1
30.73167848587036,135
30.73167848587036,121
30.73167848587036,738
30.73167848587036,992
30.73167848587036,133
30.73167848587036,152
30.73167848587036,70
30.73167848587036,19
30.73167848587036,38
30.835235595703125,17
30.835235595703125,41
30.835235595703125,1
30.835235595703125,14
30.835235595703125,9
30.835235595703125,22
30.835235595703125,63
30.835235595703125,18
30.835235595703125,180
30.835235595703125,177
30.934789896011353,38
30.934789896011353,90
30.934789896011353,97
30.934789896011353,13
30.934789896011353,20
30.934789896011353,0
30.934789896011353,7
30.934789896011353,22
30.934789896011353,68
30.934789896011353,16
31.03435778617859,49
31.03435778617859,58
31.03435778617859,6
31.03435778617859,219
31.03435778617859,223
31.03435778617859,52
31.03435778617859,8
31.03435778617859,2
31.03435778617859,280
31.03435778617859,18
31.12776255607605,58
31.12776255607605,4
31.12776255607605,33
31.12776255607605,116
31.12776255607605,200
31.12776255607605,10
31.12776255607605,20
31.12776255607605,26
31.12776255607605,55
31.12776255607605,54
31.23192024230957,37
31.233927011489868,44
31.233927011489868,33
31.233927011489868,25
31.233927011489868,33
31.233927011489868,6
31.233927011489868,38
31.233927011489868,14
31.233927011489868,133
31.33091711997986,152
31.33091711997986,32
31.33091711997986,14
31.33091711997986,19
31.33091711997986,2
31.33091711997986,9
31.33091711997986,7
31.33091711997986,13
31.33091711997986,34
31.33091711997986,40
31.42928910255432,8
31.42928910255432,14
31.42928910255432,47
31.42928910255432,8
31.42928910255432,57
31.42928910255432,6
31.42928910255432,12
31.42928910255432,14
31.42928910255432,10
31.528459787368774,13
31.528459787368774,21
31.528459787368774,10
31.528459787368774,23
31.528459787368774,25
31.528459787368774,91
31.528459787368774,36
31.528459787368774,44
31.528459787368774,48
31.528459787368774,35
31.61813735961914,2
31.61813735961914,13
31.61813735961914,25
31.61813735961914,29
31.61813735961914,14
31.61813735961914,27
31.61813735961914,21
31.61813735961914,47
31.61813735961914,40
31.61813735961914,37
31.71363401412964,30
31.71363401412964,22
31.71363401412964,10
31.71363401412964,21
31.71363401412964,32
31.71363401412964,1
31.71363401412964,0
31.71363401412964,8
31.71363401412964,4
31.816909313201904,20
31.816909313201904,13
31.816909313201904,4
31.816909313201904,9
31.816909313201904,9
31.816909313201904,1
31.816909313201904,23
31.816909313201904,7
31.816909313201904,4
31.912341594696045,11
31.914348363876343,1
31.914348363876343,3
31.914348363876343,4
31.914348363876343,19
31.914348363876343,7
31.914348363876343,17
31.914348363876343,14
31.914348363876343,6
31.914348363876343,6
31.998852968215942,5
31.998852968215942,41
31.998852968215942,10
31.998852968215942,22
31.998852968215942,8
31.998852968215942,29
31.998852968215942,30
31.998852968215942,16
31.998852968215942,13
32.10245203971863,55
32.10245203971863,31
32.10245203971863,56
32.10245203971863,23
32.10245203971863,52
32.10245203971863,14
32.10245203971863,48
32.10245203971863,26
32.10245203971863,44
32.20422625541687,4
32.20422625541687,19
32.20422625541687,11
32.20422625541687,31
32.20422625541687,11
32.20422625541687,52
32.20422625541687,2
32.20422625541687,8
32.20422625541687,10
32.20422625541687,6
32.29898428916931,24
32.29898428916931,0
32.29898428916931,4
32.29898428916931,33
32.29898428916931,18
32.29898428916931,16
32.29898428916931,2
32.29898428916931,4
32.29898428916931,7
32.29898428916931,19
32.409600019454956,17
32.409600019454956,64
32.409600019454956,2
32.409600019454956,39
32.409600019454956,19
32.409600019454956,36
32.409600019454956,25
32.409600019454956,53
32.409600019454956,3
32.409600019454956,68
32.51018524169922,77
32.51018524169922,47
32.51018524169922,59
32.51018524169922,28
32.51018524169922,62
32.51018524169922,31
32.51018524169922,75
32.51018524169922,15
32.51018524169922,62
32.51018524169922,13
32.611255407333374,2
32.611255407333374,0
32.611255407333374,0
32.611255407333374,6
32.611255407333374,11
32.611255407333374,1
32.611255407333374,31
32.611255407333374,18
32.611255407333374,30
32.611255407333374,1
32.720299243927,17
32.720299243927,16
32.720299243927,53
32.720299243927,13
32.720299243927,0
32.720299243927,0
32.720299243927,16
32.720299243927,0
32.720299243927,22
32.720299243927,0
32.720299243927,26
32.823572397232056,0
32.823572397232056,4
32.823572397232056,0
32.823572397232056,7
32.823572397232056,10
32.82438659667969,47
32.82438659667969,3
32.82438659667969,28
32.82438659667969,4
32.82438659667969,28
32.926453590393066,12
32.926453590393066,48
32.926453590393066,4
32.926453590393066,30
32.926453590393066,30
32.926453590393066,17
32.926453590393066,39
32.926453590393066,31
32.926453590393066,34
32.926453590393066,14
33.03094244003296,39
33.03094244003296,21
33.031450033187866,59
33.031450033187866,30
33.031450033187866,45
33.031450033187866,42
33.031450033187866,50
33.031450033187866,12
33.031450033187866,62
33.031450033187866,20
33.13301706314087,40
33.13301706314087,10
33.13301706314087,38
33.13301706314087,0
33.13301706314087,47
33.13301706314087,0
33.13301706314087,11
33.13301706314087,9
33.13301706314087,34
33.13301706314087,19
33.22046232223511,26
33.22046232223511,47
33.22046232223511,0
33.22046232223511,0
33.22046232223511,6
33.22046232223511,4
33.22046232223511,6
33.22046232223511,4
33.22046232223511,26
33.22046232223511,1
33.33466649055481,1
33.33466649055481,3
33.33466649055481,12
33.33466649055481,0
33.33466649055481,14
33.33466649055481,3
33.33466649055481,24
33.33466649055481,20
33.33466649055481,2
33.33466649055481,17
33.42831349372864,10
33.42831349372864,24
33.42831349372864,2
33.42831349372864,1
33.42831349372864,15
33.42831349372864,24
33.42831349372864,1
33.42831349372864,25
33.42831349372864,1
33.42831349372864,40
33.53407597541809,0
33.53407597541809,60
33.53407597541809,16
33.53407597541809,51
33.53407597541809,40
33.53407597541809,52
33.53407597541809,2
33.53407597541809,58
33.53407597541809,33
33.53407597541809,13
33.633132219314575,17
33.633132219314575,35
33.633132219314575,4
33.633132219314575,25
33.633132219314575,4
33.633132219314575,17
33.633132219314575,28
33.633132219314575,46
33.633132219314575,8
33.73611569404602,18
33.73611569404602,0
33.73611569404602,0
33.73611569404602,40
33.73611569404602,0
33.73611569404602,0
33.73611569404602,14
33.73611569404602,0
33.73611569404602,0
33.73611569404602,0
33.83726382255554,26
33.83726382255554,6
33.83726382255554,2
33.83726382255554,0
33.83726382255554,5
33.83726382255554,9
33.83726382255554,27
33.83726382255554,12
33.83726382255554,11
33.83726382255554,15
33.93785548210144,17
33.93785548210144,3
33.93785548210144,0
33.93785548210144,8
33.93785548210144,0
33.93785548210144,18
33.93785548210144,27
33.93785548210144,17
33.93785548210144,31
33.93785548210144,27
34.03745484352112,29
34.03745484352112,16
34.03745484352112,10
34.03745484352112,13
34.03745484352112,51
34.03745484352112,33
34.03745484352112,33
34.03745484352112,9
34.03745484352112,51
34.03745484352112,38
34.13756012916565,38
34.13756012916565,46
34.13756012916565,43
34.13756012916565,45
34.13756012916565,35
34.13756012916565,51
34.13756012916565,38
34.13756012916565,4
34.13756012916565,2
34.13756012916565,4
34.236016273498535,40
34.236016273498535,12
34.236016273498535,25
34.236016273498535,4
34.236016273498535,19
34.236016273498535,32
34.236016273498535,18
34.236016273498535,0
34.236016273498535,16
34.236016273498535,0
34.341060161590576,1
34.341060161590576,15
34.341060161590576,13
34.341060161590576,1
34.341060161590576,4
34.341060161590576,27
34.341060161590576,6
34.341060161590576,1
34.341060161590576,16
34.341060161590576,23
34.4424307346344,11
34.4424307346344,43
34.4424307346344,17
34.4424307346344,48
34.4424307346344,42
34.4424307346344,23
34.4424307346344,28
34.4424307346344,65
34.4424307346344,13
34.4424307346344,47
34.53765296936035,19
34.53765296936035,33
34.53765296936035,31
34.53765296936035,35
34.53765296936035,41
34.53765296936035,39
34.53765296936035,28
34.53765296936035,34
34.53765296936035,45
34.64019751548767,36
34.64019751548767,50
34.64019751548767,56
34.64019751548767,11
34.64019751548767,21
34.64019751548767,12
34.64019751548767,31
34.64019751548767,14
34.64019751548767,0
34.64019751548767,37
34.739495515823364,13
34.739495515823364,17
34.739495515823364,13
34.739495515823364,3
34.739495515823364,0
34.739495515823364,0
34.739495515823364,7
34.739495515823364,0
34.739495515823364,1
34.739495515823364,7
34.838054180145264,7
34.838054180145264,13
34.838054180145264,4
34.838054180145264,12
34.838054180145264,1
34.838054180145264,25
34.838054180145264,26
34.838054180145264,15
34.838054180145264,0
34.838054180145264,17
34.94151043891907,26
34.94151043891907,58
34.94151043891907,61
34.94151043891907,12
34.94151043891907,29
34.94151043891907,36
34.94151043891907,6
34.94151043891907,18
34.94151043891907,4
34.94151043891907,53
35.04090976715088,37
35.04090976715088,48
35.04090976715088,29
35.04090976715088,16
35.04090976715088,31
35.04090976715088,30
35.04090976715088,29
35.04090976715088,30
35.04090976715088,26
35.140005588531494,31
35.140005588531494,43
35.140005588531494,16
35.140005588531494,0
35.140005588531494,18
35.140005588531494,2
35.140005588531494,23
35.140005588531494,32
35.140005588531494,15
35.140005588531494,18
35.140005588531494,6
35.24601078033447,2
35.24601078033447,10
35.24601078033447,2
35.24601078033447,11
35.24601078033447,35
35.24601078033447,0
35.24601078033447,37
35.24601078033447,3
35.24601078033447,12
35.3423216342926,5
35.3423216342926,3
35.3423216342926,11
35.3423216342926,17
35.3423216342926,52
35.3423216342926,34
35.3423216342926,7
35.3423216342926,28
35.3423216342926,31
35.3423216342926,30
35.44259214401245,27
35.44259214401245,40
35.44259214401245,26
35.44259214401245,2
35.44259214401245,42
35.44259214401245,45
35.44259214401245,29
35.44259214401245,36
35.44259214401245,36
35.44259214401245,24
35.54260802268982,47
35.54260802268982,27
35.54260802268982,51
35.54260802268982,34
35.54260802268982,12
35.54260802268982,27
35.54260802268982,53
35.54260802268982,31
35.54260802268982,31
35.64578318595886,14
35.64578318595886,20
35.64578318595886,0
35.64578318595886,10
35.64578318595886,32
35.64578318595886,2
35.64578318595886,4
35.64578318595886,11
35.64578318595886,8
35.64578318595886,8
35.64578318595886,14
35.74793744087219,16
35.74793744087219,1
35.74793744087219,14
35.74793744087219,13
35.74793744087219,16
35.74793744087219,0
35.74793744087219,17
35.74793744087219,3
35.74793744087219,28
35.74793744087219,21
35.848233461380005,0
35.848233461380005,3
35.848233461380005,19
35.848233461380005,0
35.848233461380005,31
35.848233461380005,37
35.848233461380005,43
35.848233461380005,30
35.848233461380005,45
35.94859457015991,25
35.94859457015991,40
35.94859457015991,37
35.94859457015991,27
35.94859457015991,46
35.94859457015991,38
35.94859457015991,36
35.94859457015991,38
35.94859457015991,44
35.94859457015991,53
36.04901719093323,40
36.04901719093323,34
36.04901719093323,42
36.04901719093323,26
36.04901719093323,45
36.05103588104248,28
36.05103588104248,8
36.05103588104248,31
36.05103588104248,10
36.05103588104248,0
36.15002703666687,18
36.15002703666687,18
36.15002703666687,3
36.15002703666687,1
36.15002703666687,14
36.15002703666687,3
36.15002703666687,0
36.15002703666687,0
36.15002703666687,1
36.15002703666687,3
36.25078344345093,2
36.25078344345093,1
36.25078344345093,11
36.25078344345093,12
36.25078344345093,15
36.25078344345093,8
36.25078344345093,23
36.25078344345093,30
36.25078344345093,16
36.25078344345093,21
36.34990072250366,25
36.351906061172485,0
36.351906061172485,31
36.351906061172485,29
36.351906061172485,62
36.351906061172485,43
36.351906061172485,15
36.351906061172485,30
36.351906061172485,42
36.351906061172485,28
36.45305585861206,35
36.45305585861206,39
36.45305585861206,29
36.45305585861206,30
36.45305585861206,31
36.45305585861206,28
36.45305585861206,46
36.45305585861206,29
36.45305585861206,43
36.45305585861206,28
36.55206847190857,34
36.55206847190857,24
36.55206847190857,17
36.55206847190857,9
36.55206847190857,31
36.55206847190857,6
36.55206847190857,6
36.55206847190857,19
36.55206847190857,19
36.65446662902832,19
36.65446662902832,20
36.65446662902832,11
36.65446662902832,15
36.65446662902832,3
36.65446662902832,3
36.65446662902832,0
36.65446662902832,9
36.65446662902832,9
36.65446662902832,0
36.756985664367676,18
36.756985664367676,9
36.756985664367676,14
36.756985664367676,2
36.756985664367676,1
36.756985664367676,23
36.756985664367676,27
36.756985664367676,17
36.756985664367676,24
36.756985664367676,2
36.85762619972229,34
36.85762619972229,27
36.85762619972229,42
36.85762619972229,21
36.85762619972229,42
36.85762619972229,30
36.85762619972229,40
36.85762619972229,28
36.85762619972229,41
36.85762619972229,47
36.85762619972229,34
36.96252417564392,48
36.96252417564392,39
36.96252417564392,40
36.96252417564392,44
36.96252417564392,48
36.96252417564392,50
36.964529275894165,2
36.964529275894165,7
36.964529275894165,38
36.964529275894165,32
37.06571984291077,4
37.06571984291077,7
37.06571984291077,16
37.06571984291077,30
37.06571984291077,46
37.06571984291077,19
37.06571984291077,85
37.06571984291077,469
37.06571984291077,470
37.06571984291077,371
37.1561484336853,105
37.1561484336853,361
37.1561484336853,579
37.1561484336853,54
37.1561484336853,981
37.1561484336853,433
37.1561484336853,271
37.1561484336853,602
37.1561484336853,385
37.1561484336853,698
37.25169014930725,659
37.25169014930725,165
37.25169014930725,220
37.25169014930725,115
37.25169014930725,295
37.25169014930725,377
37.25169014930725,132
37.25169014930725,0
37.25169014930725,237
37.35994553565979,591
37.35994553565979,41
37.35994553565979,62
37.35994553565979,79
37.35994553565979,26
37.35994553565979,379
37.35994553565979,370
37.35994553565979,263
37.35994553565979,162
37.45607852935791,86
37.45607852935791,81
37.45607852935791,30
37.45607852935791,138
37.45607852935791,134
37.45607852935791,314
37.45607852935791,12
37.45607852935791,39
37.45607852935791,147
37.45607852935791,231
37.55196475982666,139
37.55196475982666,87
37.55297088623047,73
37.55297088623047,58
37.55297088623047,177
37.55297088623047,208
37.55297088623047,287
37.55297088623047,105
37.55297088623047,138
37.648807525634766,48
37.648807525634766,273
37.648807525634766,135
37.648807525634766,50
37.648807525634766,0
37.648807525634766,217
37.648807525634766,7
37.648807525634766,13
37.648807525634766,195
37.648807525634766,91
37.744343280792236,65
37.744343280792236,64
37.744343280792236,52
37.744343280792236,17
37.744343280792236,93
37.744343280792236,169
37.744343280792236,291
37.744343280792236,5
37.744343280792236,304
37.839513540267944,195
37.839513540267944,159
37.839513540267944,220
37.839513540267944,163
37.839513540267944,301
37.839513540267944,18
37.839513540267944,343
37.839513540267944,312
37.839513540267944,114
37.839513540267944,61
37.94523501396179,70
37.94523501396179,52
37.94523501396179,284
37.94523501396179,379
37.94523501396179,157
37.94523501396179,375
37.94523501396179,193
37.94523501396179,67
37.94523501396179,44
37.94725489616394,239
38.04640293121338,195
38.04640293121338,122
38.04640293121338,334
38.04640293121338,19
38.04640293121338,1
38.04640293121338,205
38.04640293121338,37
38.04840850830078,107
38.04840850830078,10
38.04840850830078,54
38.14748430252075,27
38.14748430252075,14
38.14748430252075,70
38.14748430252075,70
38.14748430252075,3
38.14748430252075,314
38.14748430252075,835
38.14748430252075,99
38.14748430252075,134
38.24806475639343,11
38.24806475639343,70
38.24806475639343,54
38.24806475639343,107
38.24806475639343,115
38.24806475639343,170
38.24806475639343,33
38.24806475639343,38
38.24806475639343,66
38.24806475639343,137
38.347702980041504,70
38.347702980041504,456
38.347702980041504,637
38.347702980041504,127
38.347702980041504,3
38.347702980041504,6
38.34870886802673,27
38.34870886802673,37
38.34870886802673,189
38.34870886802673,96
38.44381618499756,35
38.44381618499756,49
38.44381618499756,1
38.44381618499756,119
38.44381618499756,316
38.44381618499756,133
38.44381618499756,65
38.44381618499756,151
38.44381618499756,101
38.44381618499756,90
38.55131769180298,480
38.55131769180298,74
38.55131769180298,115
38.55131769180298,171
38.55131769180298,251
38.55131769180298,74
38.55131769180298,95
38.55131769180298,48
38.55131769180298,5
38.55131769180298,91
38.65330958366394,170
38.65330958366394,157
38.65330958366394,107
38.65330958366394,97
38.65330958366394,255
38.65330958366394,218
38.65330958366394,83
38.65330958366394,63
38.65330958366394,13
38.65330958366394,89
38.756184816360474,305
38.756184816360474,83
38.756184816360474,54
38.756184816360474,55
38.756184816360474,21
38.756184816360474,40
38.756184816360474,469
38.756184816360474,42
38.756184816360474,30
38.756184816360474,4
38.86123967170715,9
38.86123967170715,28
38.86123967170715,103
38.86123967170715,215
38.86123967170715,903
38.86123967170715,344
38.86123967170715,164
38.86123967170715,100
38.86123967170715,129
38.86123967170715,4
38.96413731575012,700
38.96413731575012,556
38.96413731575012,99
38.96413731575012,75
38.96413731575012,3
38.96413731575012,32
38.96413731575012,231
38.96413731575012,0
38.96413731575012,12
38.96413731575012,87
39.069066524505615,94
39.069066524505615,23
39.069066524505615,110
39.069066524505615,356
39.069066524505615,26
39.069066524505615,111
39.069066524505615,1
39.069066524505615,82
39.069066524505615,119
39.069066524505615,285
39.17133283615112,204
39.17133283615112,4
39.17133283615112,28
39.17133283615112,116
39.17133283615112,14
39.17133283615112,238
39.17133283615112,184
39.17133283615112,49
39.17133283615112,254
39.17133283615112,282
39.2697479724884,118
39.2697479724884,152
39.2697479724884,71
39.2697479724884,246
39.2697479724884,20
39.2697479724884,106
39.2697479724884,23
39.2697479724884,15
39.2697479724884,103
39.2697479724884,265
39.376890897750854,135
39.376890897750854,35
39.376890897750854,79
39.376890897750854,273
39.376890897750854,43
39.376890897750854,101
39.376890897750854,40
39.376890897750854,128
39.376890897750854,112
39.376890897750854,64
39.475799798965454,142
39.475799798965454,16
39.475799798965454,96
39.475799798965454,146
39.475799798965454,78
39.475799798965454,8
39.475799798965454,9
39.475799798965454,67
39.475799798965454,31
39.475799798965454,183
39.475799798965454,30
39.584192514419556,147
39.584192514419556,228
39.584192514419556,132
39.584192514419556,27
39.584192514419556,42
39.584192514419556,28
39.58593940734863,393
39.58593940734863,550
39.58593940734863,544
39.58593940734863,145
39.68590235710144,23
39.68590235710144,120
39.68790888786316,48
39.68790888786316,257
39.68790888786316,105
39.68790888786316,0
39.68790888786316,41
39.68790888786316,103
39.68790888786316,76
39.68790888786316,25
39.791818380355835,64
39.791818380355835,237
39.791818380355835,274
39.791818380355835,432
39.791818380355835,202
39.791818380355835,11
39.791818380355835,48
39.791818380355835,20
39.791818380355835,90
39.791818380355835,8
39.89384055137634,15
39.89384055137634,96
39.89384055137634,625
39.89384055137634,41
39.895845890045166,61
39.895845890045166,36
39.895845890045166,407
39.895845890045166,178
39.895845890045166,87
39.895845890045166,5
39.99731755256653,123
39.99731755256653,13
39.99731755256653,7
39.99731755256653,8
39.99731755256653,16
39.99731755256653,8
39.99731755256653,73
39.99731755256653,77
39.998823165893555,430
39.998823165893555,2
40.104148626327515,10
40.104148626327515,13
40.104148626327515,73
40.104148626327515,53
40.104148626327515,3
40.104148626327515,235
40.104148626327515,121
40.104148626327515,74
40.104148626327515,17
40.104148626327515,20
40.104148626327515,21
40.20478105545044,27
40.20478105545044,220
40.20478105545044,48
40.20478105545044,257
40.20478105545044,95
40.20478105545044,21
40.20478105545044,21
40.20478105545044,61
40.20478105545044,334
40.20478105545044,39
40.30012536048889,66
40.30012536048889,3
40.30012536048889,16
40.30012536048889,28
40.30012536048889,74
40.30012536048889,13
40.30012536048889,63
40.30012536048889,3
40.30012536048889,36
40.30012536048889,3
40.411978006362915,11
40.411978006362915,39
40.411978006362915,163
40.411978006362915,209
40.411978006362915,86
40.411978006362915,3
40.411978006362915,30
40.411978006362915,1
40.411978006362915,13
40.411978006362915,53
40.50682187080383,14
40.50682187080383,47
40.50682187080383,44
40.50682187080383,14
40.50682187080383,16
40.50682187080383,93
40.50682187080383,27
40.50682187080383,1
40.50682187080383,8
40.60197472572327,12
40.60197472572327,32
40.60197472572327,65
40.60197472572327,90
40.60197472572327,24
40.60197472572327,20
40.60197472572327,5
40.60197472572327,2
40.60197472572327,31
40.60197472572327,36
40.704851150512695,15
40.704851150512695,40
40.704851150512695,0
40.704851150512695,11
40.704851150512695,64
40.704851150512695,4
40.704851150512695,3
40.704851150512695,18
40.704851150512695,3
40.80174899101257,22
40.80174899101257,7
40.80174899101257,45
40.80174899101257,33
40.80174899101257,29
40.80174899101257,9
40.80174899101257,14
40.80174899101257,2
40.80174899101257,27
40.80174899101257,12
40.896714210510254,35
40.896714210510254,9
40.896714210510254,27
40.896714210510254,24
40.896714210510254,33
40.896714210510254,37
40.896714210510254,23
40.896714210510254,4
40.896714210510254,1
40.99584889411926,2
40.99584889411926,14
40.99584889411926,17
40.99584889411926,2
40.99685478210449,0
40.99685478210449,9
40.99685478210449,6
40.99685478210449,3
40.99685478210449,0
40.99685478210449,31
41.09052515029907,8
41.09052515029907,29
41.09227252006531,4
41.09227252006531,15
41.09227252006531,9
41.09227252006531,49
41.09227252006531,44
41.09227252006531,42
41.09227252006531,36
41.18836951255798,45
41.19031310081482,54
41.19031310081482,54
41.19031310081482,69
41.19031310081482,39
41.19031310081482,43
41.19031310081482,37
41.19031310081482,51
41.19031310081482,56
41.19031310081482,80
41.28917217254639,13
41.28917217254639,58
41.28917217254639,26
41.28917217254639,76
41.28917217254639,30
41.28917217254639,41
41.29117751121521,22
41.29117751121521,70
41.29117751121521,6
41.29117751121521,52
41.37800621986389,31
41.37800621986389,34
41.37800621986389,9
41.37800621986389,20
41.37800621986389,3
41.37800621986389,36
41.37800621986389,1
41.37800621986389,4
41.37800621986389,35
41.37800621986389,2
41.48956227302551,2
41.48956227302551,5
41.48956227302551,22
41.48956227302551,3
41.48956227302551,1
41.48956227302551,4
41.48956227302551,1
41.48956227302551,2
41.48956227302551,0
41.587279081344604,36
41.587279081344604,5
41.587279081344604,8
41.587279081344604,7
41.587279081344604,13
41.587279081344604,25
41.587279081344604,12
41.587279081344604,0
41.587279081344604,8
41.587279081344604,1
41.68040895462036,0
41.68040895462036,16
41.68040895462036,9
41.68040895462036,16
41.68040895462036,5
41.68040895462036,5
41.68040895462036,8
41.68040895462036,7
41.68040895462036,10
41.68040895462036,6
41.79012322425842,16
41.79012322425842,11
41.79012322425842,28
41.791128396987915,11
41.791128396987915,17
41.791128396987915,11
41.791128396987915,39
41.791128396987915,35
41.791128396987915,50
41.791128396987915,5
41.891234159469604,12
41.891234159469604,36
41.891234159469604,48
41.891234159469604,29
41.891234159469604,34
41.891234159469604,56
41.891234159469604,27
41.891234159469604,20
41.891234159469604,5
41.891234159469604,11
41.990668296813965,2
41.990668296813965,0
41.990668296813965,14
41.990668296813965,6
41.990668296813965,2
41.990668296813965,10
41.99217700958252,29
41.99217700958252,8
41.99217700958252,0
41.99217700958252,0
42.09259057044983,1
42.09259057044983,0
42.09259057044983,6
42.09259057044983,4
42.09259057044983,2
42.09259057044983,2
42.09259057044983,3
42.09259057044983,15
42.09259057044983,9
42.09259057044983,19
42.19382309913635,6
42.19382309913635,15
42.19382309913635,3
42.19382309913635,0
42.19382309913635,4
42.19382309913635,47
42.19382309913635,28
42.19382309913635,40
42.19382309913635,12
42.19382309913635,3
42.29725623130798,13
42.29876112937927,36
42.29876112937927,14
42.29876112937927,29
42.29876112937927,50
42.29876112937927,56
42.29876112937927,40
42.29876112937927,32
42.29876112937927,39
42.29876112937927,41
42.400662660598755,56
42.400662660598755,26
42.400662660598755,17
42.400662660598755,28
42.400662660598755,24
42.400662660598755,14
42.400662660598755,7
42.400662660598755,33
42.400662660598755,11
42.400662660598755,32
42.50420594215393,22
42.50420594215393,3
42.50420594215393,16
42.50420594215393,22
42.50420594215393,3
42.50420594215393,8
42.50420594215393,7
42.50420594215393,0
42.50420594215393,1
42.50420594215393,10
42.60710000991821,4
42.60710000991821,5
42.60710000991821,0
42.60710000991821,13
42.60710000991821,3
42.60710000991821,6
42.60710000991821,19
42.60710000991821,10
42.60710000991821,12
42.60710000991821,5
42.70931625366211,28
42.70931625366211,2
42.70931625366211,31
42.70931625366211,9
42.70931625366211,35
42.70931625366211,14
42.70931625366211,51
42.70931625366211,41
42.70931625366211,44
42.70931625366211,30
42.804197788238525,9
42.804197788238525,33
42.804197788238525,37
42.804197788238525,40
42.804197788238525,39
42.804197788238525,17
42.804197788238525,23
42.804197788238525,37
42.804197788238525,0
42.804197788238525,35
42.91174054145813,31
42.91174054145813,41
42.91174054145813,31
42.91174054145813,34
42.91174054145813,45
42.91174054145813,17
42.91174054145813,30
42.91174054145813,14
42.91174054145813,22
42.91174054145813,39
43.01091432571411,1
43.01091432571411,5
43.01091432571411,14
43.01091432571411,24
43.01091432571411,0
43.01091432571411,0
43.01091432571411,9
43.01091432571411,0
43.01091432571411,5
43.01091432571411,10
43.105432987213135,2
43.105432987213135,2
43.105432987213135,0
43.105432987213135,2
43.105432987213135,3
43.105432987213135,24
43.105432987213135,0
43.105432987213135,1
43.105432987213135,29
43.105432987213135,26
43.201061964035034,17
43.201061964035034,39
43.201061964035034,32
43.201061964035034,26
43.201061964035034,32
43.201061964035034,22
43.201061964035034,12
43.201061964035034,44
43.201061964035034,26
43.201061964035034,19
43.315794706344604,33
43.315794706344604,33
43.315794706344604,29
43.315794706344604,53
43.315794706344604,36
43.315794706344604,33
43.315794706344604,21
43.315794706344604,18
43.315794706344604,40
43.315794706344604,43
43.40916848182678,31
43.40916848182678,49
43.40916848182678,8
43.40916848182678,21
43.40916848182678,17
43.40916848182678,27
43.40916848182678,12
43.40916848182678,24
43.40916848182678,1
43.40916848182678,0
43.5245099067688,13
43.5245099067688,8
43.5245099067688,1
43.5245099067688,5
43.5245099067688,0
43.5245099067688,6
43.5245099067688,2
43.5245099067688,1
43.5245099067688,19
43.5245099067688,3
43.62614989280701,2
43.62614989280701,30
43.62614989280701,21
43.62614989280701,17
43.62614989280701,12
43.62614989280701,16
43.62614989280701,15
43.62614989280701,4
43.62614989280701,37
43.62614989280701,15
43.728506326675415,47
43.728506326675415,16
43.728506326675415,23
43.728506326675415,41
43.728506326675415,14
43.728506326675415,18
43.728506326675415,44
43.728506326675415,17
43.73051190376282,51
43.73051190376282,29
43.83126139640808,24
43.83126139640808,20
43.83126139640808,17
43.83126139640808,46
43.83126139640808,26
43.83126139640808,26
43.83126139640808,38
43.83126139640808,29
43.83126139640808,37
43.83126139640808,31
43.93419051170349,18
43.93419051170349,11
43.93419051170349,18
43.93419051170349,17
43.93419051170349,19
43.93419051170349,8
43.93419051170349,9
43.93419051170349,21
43.93419051170349,5
43.93419051170349,5
44.02884769439697,4
44.02884769439697,2
44.02884769439697,18
44.02884769439697,0
44.02884769439697,11
44.02884769439697,2
44.02884769439697,3
44.02884769439697,8
44.02884769439697,3
44.02884769439697,14
44.124216079711914,20
44.124216079711914,11
44.124216079711914,5
44.124216079711914,25
44.124216079711914,7
44.124216079711914,29
44.124216079711914,5
44.124216079711914,46
44.124216079711914,48
44.124216079711914,39
44.24210572242737,29
44.24210572242737,37
44.24210572242737,3
44.24210572242737,37
44.24210572242737,24
44.24210572242737,37
44.24210572242737,11
44.24210572242737,30
44.24210572242737,23
44.24210572242737,35
44.343446254730225,33
44.343446254730225,38
44.34545159339905,27
44.34545159339905,43
44.34545159339905,47
44.34545159339905,33
44.34545159339905,38
44.34545159339905,29
44.34545159339905,17
44.34545159339905,28
44.44582796096802,32
44.44582796096802,29
44.44582796096802,9
44.44582796096802,17
44.44582796096802,8
44.44582796096802,14
44.44582796096802,1
44.44582796096802,14
44.44582796096802,3
44.44582796096802,7
44.54769706726074,15
44.54769706726074,2
44.54769706726074,4
44.54769706726074,2
44.54769706726074,10
44.54769706726074,2
44.54769706726074,8
44.54769706726074,1
44.54769706726074,4
44.54769706726074,7
44.64914917945862,7
44.64914917945862,3
44.64914917945862,37
44.64914917945862,22
44.64914917945862,8
44.64914917945862,11
44.64914917945862,29
44.64914917945862,31
44.64914917945862,36
44.64914917945862,27
44.754011154174805,32
44.754011154174805,22
44.754011154174805,16
44.754011154174805,12
44.754011154174805,27
44.754011154174805,35
44.754011154174805,44
44.754011154174805,26
44.754011154174805,29
44.754011154174805,24
44.85429906845093,32
44.85429906845093,38
44.85429906845093,33
44.85429906845093,28
44.85429906845093,33
44.85429906845093,38
44.85429906845093,31
44.85429906845093,42
44.85429906845093,20
44.85429906845093,12
44.95011305809021,20
44.95011305809021,31
44.95011305809021,16
44.95011305809021,9
44.95011305809021,7
44.95011305809021,28
44.95011305809021,3
44.95011305809021,3
44.95011305809021,0
44.95011305809021,2
45.04576635360718,5
45.04576635360718,8
45.04576635360718,19
45.04576635360718,6
45.04576635360718,0
45.04576635360718,9
45.04576635360718,1
45.04576635360718,30
45.04576635360718,13
45.04576635360718,28
45.14975547790527,2
45.14975547790527,22
45.14975547790527,7
45.14975547790527,23
45.14975547790527,43
45.14975547790527,48
45.1517608165741,38
45.1517608165741,35
45.1517608165741,33
45.24866962432861,63
45.24866962432861,14
45.24866962432861,56
45.24866962432861,31
45.24866962432861,48
45.24866962432861,38
45.25236964225769,51
45.25236964225769,46
45.25236964225769,43
45.25236964225769,15
45.35479259490967,24
45.35479259490967,19
45.35479259490967,36
45.35529971122742,36
45.35529971122742,46
45.35529971122742,38
45.35529971122742,24
45.35529971122742,14
45.35529971122742,16
45.35529971122742,36
45.4536337852478,8
45.4536337852478,4
45.4536337852478,20
45.4536337852478,7
45.4536337852478,11
45.4536337852478,1
45.4536337852478,3
45.4536337852478,0
45.4536337852478,3
45.4536337852478,0
45.557470083236694,1
45.557470083236694,6
45.557470083236694,3
45.557470083236694,25
45.557470083236694,0
45.557470083236694,17
45.557470083236694,11
45.557470083236694,24
45.557470083236694,10
45.557470083236694,18
45.66053628921509,2
45.66053628921509,48
45.66053628921509,20
45.66053628921509,38
45.66053628921509,18
45.66254210472107,68
45.66254210472107,39
45.66254210472107,41
45.66254210472107,15
45.66254210472107,32
45.764323234558105,45
45.764323234558105,51
45.764323234558105,33
45.764323234558105,45
45.764323234558105,42
45.764323234558105,29
45.764323234558105,47
45.764323234558105,40
45.764323234558105,38
45.764323234558105,25
45.864543437957764,41
45.864543437957764,47
45.864543437957764,20
45.864543437957764,3
45.864543437957764,0
45.864543437957764,17
45.864543437957764,66
45.864543437957764,26
45.864543437957764,20
45.864543437957764,18
45.96650815010071,13
45.96851420402527,0
45.96851420402527,6
45.96851420402527,0
45.96851420402527,17
45.96851420402527,0
45.96851420402527,10
45.96851420402527,1
45.96851420402527,1
45.96851420402527,3
45.96851420402527,1
46.068840742111206,60
46.068840742111206,47
46.068840742111206,23
46.07084608078003,18
46.07084608078003,4
46.07084608078003,37
46.07084608078003,34
46.07084608078003,15
46.07084608078003,30
46.172691106796265,39
46.172691106796265,22
46.172691106796265,43
46.172691106796265,8
46.172691106796265,33
46.172691106796265,42
46.172691106796265,46
46.172691106796265,72
46.172691106796265,22
46.172691106796265,24
46.27717876434326,37
46.27717876434326,13
46.27717876434326,30
46.27717876434326,5
46.27717876434326,46
46.27717876434326,45
46.27717876434326,34
46.27717876434326,32
46.27717876434326,41
46.27717876434326,49
46.27717876434326,59
46.3714165687561,29
46.3714165687561,32
46.37196755409241,14
46.37196755409241,21
46.37196755409241,0
46.37196755409241,28
46.37196755409241,7
46.37196755409241,6
46.37196755409241,70
46.461424589157104,1
46.461424589157104,2
46.461424589157104,0
46.461424589157104,5
46.461424589157104,7
46.461424589157104,267
46.461424589157104,348
46.46342992782593,153
46.46342992782593,151
46.556087255477905,27
46.556087255477905,239
46.556087255477905,114
46.556087255477905,65
46.556087255477905,99
46.556087255477905,7
46.556087255477905,22
46.556087255477905,149
46.556087255477905,17
46.64866518974304,93
46.65067195892334,81
46.65067195892334,5
46.65067195892334,78
46.65067195892334,16
46.65067195892334,23
46.65067195892334,136
46.65067195892334,242
46.65067195892334,100
46.74412965774536,144
46.74412965774536,21
46.74412965774536,734
46.74412965774536,5
46.74412965774536,59
46.74412965774536,351
46.74412965774536,229
46.74412965774536,45
46.74412965774536,43
46.83792018890381,170
46.83792018890381,214
46.83792018890381,100
46.83792018890381,200
46.83792018890381,109
46.83792018890381,136
46.83792018890381,4
46.83792018890381,286
46.83792018890381,208
46.83792018890381,447
46.931923389434814,184
46.931923389434814,134
46.931923389434814,403
46.931923389434814,207
46.931923389434814,19
46.931923389434814,82
46.931923389434814,5
46.931923389434814,31
46.931923389434814,81
47.035584449768066,407
47.035584449768066,95
47.035584449768066,86
47.035584449768066,18
47.035584449768066,303
47.035584449768066,74
47.035584449768066,32
47.035584449768066,145
47.035584449768066,1
47.035584449768066,51
47.135753870010376,8
47.135753870010376,355
47.135753870010376,64
47.135753870010376,66
47.135753870010376,66
47.135753870010376,470
47.1377592086792,474
47.1377592086792,26
47.1377592086792,49
47.1377592086792,61
47.236164808273315,109
47.236164808273315,35
47.236164808273315,139
47.236164808273315,247
47.236164808273315,71
47.236164808273315,58
47.236164808273315,310
47.236164808273315,0
47.236164808273315,0
47.33608603477478,159
47.33608603477478,36
47.33608603477478,134
47.33608603477478,119
47.33608603477478,341
47.33608603477478,94
47.33608603477478,88
47.33608603477478,275
47.33608603477478,121
47.33608603477478,49
47.43572235107422,5
47.43572235107422,48
47.43572235107422,209
47.43572235107422,271
47.43572235107422,87
47.43572235107422,17
47.43572235107422,176
47.43572235107422,202
47.43572235107422,43
47.43572235107422,36
47.53726816177368,55
47.53726816177368,193
47.53726816177368,43
47.53726816177368,15
47.53726816177368,333
47.53726816177368,36
47.53726816177368,530
47.53726816177368,563
47.53726816177368,202
47.53726816177368,14
47.63766527175903,3
47.63766527175903,327
47.63766527175903,354
47.63766527175903,111
47.63766527175903,109
47.63766527175903,253
47.63766527175903,78
47.63766527175903,233
47.63766527175903,133
47.63766527175903,207
47.74018597602844,2
47.74103617668152,28
47.74103617668152,38
47.74103617668152,8
47.74103617668152,110
47.74103617668152,245
47.74103617668152,237
47.74103617668152,51
47.74103617668152,8
47.74103617668152,3
47.84172224998474,92
47.84172224998474,108
47.84172224998474,78
47.84172224998474,42
47.84172224998474,19
47.84172224998474,66
47.84172224998474,11
47.84172224998474,13
47.84172224998474,83
47.843727827072144,100
47.92961049079895,62
47.92961049079895,165
47.92961049079895,143
47.92961049079895,43
47.92961049079895,132
47.92961049079895,63
47.92961049079895,59
47.92961049079895,178
47.92961049079895,347
47.92961049079895,87
48.042969703674316,80
48.042969703674316,121
48.042969703674316,11
48.042969703674316,251
48.042969703674316,5
48.042969703674316,256
48.042969703674316,122
48.042969703674316,5
48.042969703674316,93
48.141711473464966,90
48.141711473464966,255
48.141711473464966,201
48.141711473464966,175
48.141711473464966,47
48.141711473464966,81
48.141711473464966,55
48.141711473464966,50
48.141711473464966,77
48.141711473464966,33
48.241509675979614,19
48.241509675979614,186
48.241509675979614,218
48.241509675979614,261
48.241509675979614,381
48.241509675979614,126
48.241509675979614,52
48.241509675979614,2
48.241509675979614,1
48.241509675979614,169
48.3422429561615,137
48.3422429561615,75
48.3422429561615,41
48.3422429561615,145
48.3422429561615,334
48.342692613601685,284
48.342692613601685,271
48.342692613601685,162
48.342692613601685,108
48.342692613601685,35
48.43831753730774,25
48.43831753730774,42
48.43831753730774,138
48.43831753730774,81
48.43831753730774,295
48.43831753730774,183
48.43831753730774,84
48.43831753730774,247
48.43831753730774,83
48.54125452041626,30
48.54125452041626,96
48.54125452041626,12
48.54125452041626,13
48.54325985908508,168
48.54325985908508,377
48.54325985908508,95
48.54325985908508,117
48.54325985908508,120
48.54325985908508,1
48.641757011413574,84
48.641757011413574,14
48.641757011413574,2
48.641757011413574,29
48.641757011413574,23
48.641757011413574,23
48.641757011413574,183
48.641757011413574,44
48.641757011413574,124
48.641757011413574,83
48.73894691467285,53
48.73894691467285,85
48.73894691467285,14
48.73894691467285,156
48.73894691467285,113
48.73894691467285,376
48.73894691467285,122
48.73894691467285,206
48.73894691467285,8
48.73894691467285,55
48.83855628967285,15
48.83855628967285,143
48.83855628967285,4
48.83855628967285,2
48.83855628967285,0
48.83855628967285,36
48.83855628967285,219
48.83855628967285,66
48.83855628967285,100
48.93326020240784,187
48.93326020240784,37
48.93326020240784,42
48.93326020240784,95
48.93526577949524,19
48.93526577949524,45
48.93526577949524,36
48.93526577949524,3
48.93526577949524,36
49.02652597427368,105
49.02652597427368,195
49.02652597427368,487
49.02652597427368,137
49.02652597427368,231
49.02652597427368,85
49.02652597427368,85
49.02652597427368,11
49.02652597427368,5
49.02652597427368,26
49.12529993057251,113
49.12529993057251,148
49.12529993057251,97
49.12529993057251,85
49.12529993057251,26
49.12529993057251,31
49.127304792404175,114
49.127304792404175,280
49.127304792404175,151
49.21828103065491,99
49.21828103065491,0
49.21828103065491,56
49.21828103065491,218
49.21828103065491,286
49.21828103065491,271
49.21828103065491,181
49.21828103065491,3
49.21828103065491,119
49.31027007102966,495
49.31027007102966,518
49.31027007102966,229
49.31027007102966,103
49.31027007102966,50
49.31027007102966,25
49.31027007102966,615
49.31027007102966,376
49.31027007102966,235
49.31027007102966,87
49.40604901313782,32
49.40604901313782,166
49.40604901313782,121
49.40604901313782,37
49.40604901313782,6
49.40604901313782,106
49.40604901313782,43
49.40604901313782,261
49.40604901313782,58
49.40604901313782,46
49.51803731918335,16
49.51803731918335,90
49.51803731918335,34
49.51803731918335,0
49.51803731918335,2
49.51803731918335,13
49.51803731918335,46
49.51803731918335,0
49.51803731918335,33
49.51803731918335,8
49.62066650390625,168
49.62066650390625,125
49.62066650390625,1
49.62066650390625,16
49.62066650390625,29
49.62066650390625,90
49.62066650390625,12
49.62066650390625,131
49.62066650390625,66
49.62066650390625,6
49.71999430656433,42
49.71999430656433,52
49.71999430656433,92
49.71999430656433,72
49.71999430656433,53
49.71999430656433,23
49.71999430656433,1
49.71999430656433,17
49.71999430656433,48
49.81496977806091,5
49.81496977806091,30
49.81496977806091,35
49.81697487831116,86
49.81697487831116,44
49.81697487831116,6
49.81697487831116,1
49.81697487831116,41
49.81697487831116,8
49.81697487831116,6
49.8985755443573,3
49.8985755443573,28
49.8985755443573,15
49.8985755443573,27
49.8985755443573,10
49.8985755443573,3
49.8985755443573,45
49.8985755443573,23
49.8985755443573,0
50.00646615028381,6
50.00646615028381,3
50.00646615028381,1
50.00646615028381,3
50.00646615028381,21
50.00646615028381,2
50.00646615028381,17
50.00646615028381,8
50.00646615028381,0
50.09950661659241,8
50.09950661659241,0
50.09950661659241,47
50.10151267051697,11
50.10151267051697,58
50.10151267051697,12
50.10151267051697,1
50.10151267051697,23
50.10151267051697,41
50.10151267051697,22
50.19542217254639,31
50.19542217254639,25
50.19542217254639,45
50.19542217254639,37
50.19542217254639,39
50.19542217254639,23
50.19542217254639,43
50.19542217254639,0
50.19542217254639,96
50.29580640792847,40
50.29580640792847,28
50.29580640792847,43
50.29580640792847,51
50.29580640792847,3
50.29580640792847,0
50.29580640792847,42
50.29580640792847,37
50.29580640792847,22
50.29580640792847,21
50.39533567428589,47
50.39533567428589,43
50.39533567428589,20
50.39533567428589,20
50.39533567428589,6
50.39533567428589,49
50.39533567428589,110
50.39533567428589,19
50.39533567428589,7
50.39533567428589,0
50.48683476448059,59
50.48683476448059,12
50.48683476448059,0
50.48683476448059,18
50.48683476448059,12
50.48683476448059,0
50.48683476448059,0
50.48683476448059,9
50.48683476448059,0
50.58239817619324,26
50.58239817619324,17
50.58239817619324,1
50.58239817619324,0
50.58239817619324,33
50.58239817619324,25
50.58239817619324,4
50.58239817619324,23
50.58239817619324,0
50.58239817619324,42
50.678505182266235,23
50.678505182266235,13
50.678505182266235,27
50.678505182266235,43
50.678505182266235,23
50.678505182266235,40
50.678505182266235,48
50.678505182266235,17
50.678505182266235,27
50.78950309753418,60
50.78950309753418,34
50.79009747505188,18
50.79009747505188,13
50.79009747505188,23
50.79009747505188,41
50.79009747505188,24
50.79009747505188,8
50.79009747505188,35
50.79009747505188,18
50.88740563392639,1
50.88740563392639,15
50.88740563392639,10
50.88941144943237,6
50.88941144943237,41
50.88941144943237,26
50.88941144943237,0
50.88941144943237,10
50.88941144943237,0
50.88941144943237,62
50.980647563934326,19
50.980647563934326,1
50.980647563934326,8
50.980647563934326,16
50.980647563934326,6
50.980647563934326,0
50.980647563934326,0
50.980647563934326,11
50.980647563934326,7
50.980647563934326,8
51.087278842926025,3
51.087278842926025,15
51.087278842926025,2
51.087278842926025,23
51.087278842926025,1
51.087278842926025,14
51.087278842926025,6
51.087278842926025,23
51.087278842926025,34
51.186418533325195,41
51.186418533325195,12
51.186418533325195,32
51.186418533325195,10
51.186418533325195,30
51.186418533325195,0
51.186418533325195,3
51.186418533325195,12
51.186418533325195,37
51.186418533325195,14
51.28173232078552,37
51.28173232078552,22
51.28173232078552,26
51.28173232078552,20
51.28173232078552,9
51.28173232078552,19
51.28173232078552,36
51.28173232078552,30
51.28173232078552,34
51.28173232078552,20
51.38704323768616,19
51.38704323768616,11
51.38704323768616,0
51.38704323768616,33
51.38704323768616,12
51.38704323768616,14
51.38904857635498,11
51.38904857635498,18
51.38904857635498,7
51.38904857635498,2
51.474281311035156,0
51.48788142204285,17
51.48788142204285,3
51.48788142204285,1
51.48788142204285,2
51.48788142204285,5
51.48788142204285,2
51.48788142204285,19
51.48788142204285,6
51.48826789855957,31
51.5876898765564,1
51.5876898765564,8
51.5876898765564,7
51.5876898765564,2
51.5876898765564,6
51.5876898765564,2
51.5876898765564,0
51.5876898765564,22
51.5876898765564,33
51.68655276298523,88
51.68655276298523,17
51.68655276298523,39
51.68855810165405,29
51.68855810165405,25
51.68855810165405,13
51.68855810165405,14
51.68855810165405,26
51.68855810165405,34
51.68855810165405,28
51.78490495681763,41
51.78490495681763,33
51.78490495681763,37
51.78490495681763,31
51.78490495681763,32
51.78490495681763,39
51.78690981864929,50
51.78690981864929,33
51.78690981864929,26
51.78690981864929,11
51.879050970077515,13
51.879050970077515,21
51.879050970077515,10
51.879050970077515,3
51.879050970077515,0
51.879050970077515,0
51.879050970077515,14
51.88105583190918,13
51.88105583190918,0
51.977051734924316,4
51.977051734924316,2
51.977051734924316,6
51.977051734924316,27
51.977051734924316,0
51.977051734924316,7
51.977051734924316,11
51.977051734924316,3
51.977051734924316,3
51.977051734924316,1
52.058796405792236,17
52.058796405792236,22
52.058796405792236,3
52.058796405792236,15
52.058796405792236,10
52.058796405792236,5
52.058796405792236,29
52.058796405792236,25
52.058796405792236,35
52.16559410095215,40
52.16559410095215,33
52.16559410095215,33
52.16559410095215,39
52.16559410095215,18
52.16559410095215,38
52.16559410095215,21
52.16559410095215,48
52.16559410095215,36
52.26104140281677,35
52.26104140281677,20
52.26104140281677,36
52.26104140281677,45
52.26104140281677,18
52.26104140281677,45
52.26104140281677,35
52.26104140281677,26
52.26104140281677,41
52.346333503723145,30
52.346333503723145,13
52.346333503723145,15
52.346333503723145,5
52.346333503723145,0
52.346333503723145,2
52.346333503723145,2
52.346333503723145,14
52.346333503723145,0
52.346333503723145,2
52.453816175460815,1
52.453816175460815,8
52.453816175460815,2
52.453816175460815,1
52.453816175460815,0
52.453816175460815,2
52.453816175460815,3
52.453816175460815,15
52.453816175460815,9
52.54786968231201,5
52.54786968231201,1
52.54786968231201,4
52.54786968231201,7
52.54786968231201,1
52.54786968231201,15
52.54786968231201,8
52.54786968231201,27
52.54786968231201,14
52.54786968231201,37
52.64273166656494,17
52.64273166656494,37
52.64273166656494,37
52.64273166656494,39
52.64273166656494,15
52.64273166656494,36
52.64273166656494,43
52.64273166656494,33
52.64273166656494,34
52.74159073829651,37
52.74159073829651,29
52.74159073829651,34
52.74159073829651,20
52.74159073829651,27
52.74159073829651,20
52.74159073829651,28
52.74159073829651,20
52.74159073829651,26
52.74159073829651,35
52.84161734580994,17
52.84161734580994,31
52.84362292289734,19
52.84362292289734,10
52.84362292289734,19
52.84362292289734,9
52.84362292289734,23
52.84362292289734,0
52.84362292289734,4
52.84362292289734,0
52.94188213348389,4
52.94188213348389,16
52.94188213348389,13
52.94188213348389,3
52.94188213348389,6
52.94188213348389,13
52.94188213348389,8
52.94188213348389,20
52.94188213348389,7
53.04170536994934,11
53.04170536994934,8
53.04170536994934,16
53.04170536994934,6
53.04170536994934,19
53.04170536994934,2
53.04170536994934,37
53.04170536994934,0
53.04170536994934,39
53.04170536994934,3
53.14245343208313,15
53.14245343208313,3
53.14245343208313,45
53.14245343208313,36
53.14245343208313,30
53.144468545913696,32
53.144468545913696,32
53.144468545913696,46
53.144468545913696,32
53.144468545913696,42
53.23778676986694,38
53.23778676986694,33
53.23778676986694,29
53.23778676986694,31
53.23778676986694,16
53.23778676986694,27
53.23778676986694,26
53.23778676986694,32
53.23778676986694,44
53.31521534919739,35
53.31521534919739,34
53.31521534919739,13
53.31521534919739,32
53.33029532432556,38
53.33029532432556,19
53.33029532432556,12
53.33029532432556,14
53.33029532432556,20
53.40930724143982,10
53.40930724143982,8
53.40930724143982,21
53.40930724143982,1
53.40930724143982,2
53.40930724143982,9
53.425354957580566,5
53.425354957580566,1
53.425354957580566,1
53.425354957580566,9
53.50455331802368,3
53.50455331802368,50
53.50455331802368,4
53.50455331802368,16
53.50455331802368,3
53.50455331802368,17
53.50455331802368,2
53.50455331802368,11
53.50455331802368,29
53.61071538925171,8
53.61071538925171,7
53.61071538925171,35
53.61071538925171,32
53.61071538925171,11
53.61071538925171,16
53.61071538925171,40
53.61071538925171,47
53.61071538925171,26
53.71370315551758,26
53.71370315551758,31
53.71370315551758,25
53.71370315551758,38
53.71370315551758,34
53.71370315551758,45
53.71370315551758,35
53.71370315551758,24
53.71370315551758,38
53.715710401535034,32
53.815197467803955,28
53.815197467803955,24
53.815197467803955,29
53.815197467803955,21
53.815197467803955,22
53.815197467803955,18
53.815197467803955,5
53.815197467803955,13
53.815197467803955,18
53.81720280647278,14
53.918415784835815,10
53.918415784835815,14
53.918415784835815,15
53.918415784835815,1
53.918415784835815,3
53.918415784835815,1
53.918415784835815,1
53.918415784835815,2
53.918415784835815,8
53.918415784835815,8
54.0119788646698,17
54.0119788646698,4
54.0119788646698,11
54.0119788646698,2
54.0119788646698,18
54.0119788646698,17
54.0119788646698,31
54.0119788646698,1
54.0119788646698,19
54.0119788646698,7
54.12150001525879,21
54.12150001525879,26
54.12150001525879,51
54.12150001525879,33
54.12150001525879,45
54.12150001525879,23
54.12150001525879,30
54.12150001525879,26
54.12150001525879,40
54.12150001525879,29
54.22517704963684,30
54.22517704963684,19
54.22517704963684,42
54.22517704963684,27
54.22517704963684,27
54.22517704963684,30
54.22517704963684,30
54.22517704963684,22
54.22517704963684,38
54.22517704963684,52
54.328516721725464,39
54.328516721725464,17
54.328516721725464,15
54.328516721725464,15
54.328516721725464,20
54.328516721725464,29
54.332963943481445,21
54.332963943481445,9
54.332963943481445,25
54.332963943481445,2
54.433253049850464,13
54.433253049850464,7
54.433253049850464,1
54.433253049850464,17
54.433253049850464,4
54.433253049850464,3
54.433253049850464,2
54.433253049850464,3
54.433253049850464,6
54.433253049850464,11
54.433253049850464,3
54.53535079956055,12
54.53535079956055,13
54.53535079956055,8
54.53535079956055,4
54.53535079956055,12
54.53535079956055,8
54.53535079956055,14
54.53535079956055,3
54.53535079956055,17
54.64100170135498,15
54.64100170135498,42
54.64100170135498,30
54.64100170135498,57
54.64100170135498,21
54.64100170135498,39
54.64100170135498,14
54.64100170135498,44
54.64100170135498,50
54.64100170135498,18
54.64100170135498,50
54.74682831764221,44
54.74682831764221,33
54.74682831764221,41
54.74682831764221,40
54.74682831764221,35
54.74682831764221,27
54.74682831764221,45
54.74682831764221,33
54.74682831764221,39
54.74682831764221,7
54.85099720954895,21
54.85099720954895,15
54.85099720954895,9
54.85099720954895,18
54.85099720954895,13
54.85099720954895,0
54.85099720954895,0
54.85099720954895,34
54.85099720954895,3
54.85099720954895,6
54.94570183753967,10
54.94570183753967,0
54.94570183753967,15
54.94570183753967,2
54.94570183753967,1
54.94570183753967,24
54.94570183753967,2
54.94570183753967,12
54.94570183753967,4
54.94570183753967,1
55.05366516113281,17
55.05366516113281,15
55.05366516113281,13
55.05366516113281,45
55.05366516113281,2
55.05366516113281,21
55.05366516113281,28
55.05366516113281,21
55.05366516113281,38
55.05366516113281,31
55.151989221572876,2
55.151989221572876,22
55.151989221572876,25
55.151989221572876,19
55.151989221572876,12
55.151989221572876,26
55.151989221572876,28
55.151989221572876,43
55.151989221572876,32
55.151989221572876,49
55.24722743034363,73
55.24722743034363,28
55.24722743034363,24
55.24722743034363,39
55.24722743034363,38
55.24722743034363,38
55.24722743034363,19
55.24722743034363,5
55.24722743034363,21
55.24722743034363,13
55.364351987838745,13
55.364351987838745,10
55.364351987838745,30
55.364351987838745,4
55.364351987838745,0
55.364351987838745,21
55.364351987838745,0
55.364351987838745,11
55.364351987838745,19
55.364351987838745,7
55.364351987838745,0
55.468252658843994,0
55.468252658843994,3
55.468252658843994,2
55.468252658843994,10
55.468252658843994,8
55.468252658843994,6
55.468252658843994,38
55.468252658843994,32
55.468252658843994,28
55.468252658843994,33
55.570212602615356,25
55.570212602615356,26
55.570212602615356,0
55.570212602615356,23
55.570212602615356,30
55.570212602615356,28
55.570212602615356,36
55.570212602615356,25
55.570212602615356,35
55.570212602615356,31
55.67173647880554,26
55.67173647880554,39
55.67173647880554,39
55.67173647880554,37
55.67173647880554,39
55.67173647880554,48
55.673742055892944,32
55.673742055892944,41
55.673742055892944,34
55.673742055892944,36
55.77442646026611,24
55.77442646026611,33
55.77442646026611,38
55.77442646026611,39
55.77442646026611,33
55.77442646026611,6
55.77442646026611,9
55.77442646026611,17
55.77442646026611,11
55.77442646026611,24
55.87559151649475,0
55.87559151649475,0
55.87559151649475,25
55.87559151649475,22
55.87559151649475,2
55.87559151649475,1
55.87559151649475,0
55.87559151649475,4
55.87559151649475,2
55.87559151649475,0
55.97475576400757,13
55.97475576400757,46
55.97475576400757,24
55.97475576400757,13
55.97475576400757,6
55.97475576400757,17
55.97475576400757,39
55.97676157951355,14
55.97676157951355,27
55.97676157951355,3
56.07226490974426,30
56.07226490974426,30
56.07226490974426,38
56.07226490974426,23
56.07226490974426,24
56.07226490974426,26
56.07226490974426,42
56.07226490974426,0
56.07226490974426,16
56.16793179512024,34
56.16793179512024,43
56.16793179512024,23
56.16793179512024,41
56.16793179512024,28
56.16793179512024,18
56.16793179512024,70
56.16793179512024,138
56.16793179512024,44
56.16793179512024,36
56.28026556968689,20
56.28026556968689,37
56.28026556968689,15
56.28026556968689,12
56.28026556968689,15
56.28026556968689,16
56.28026556968689,11
56.28026556968689,25
56.28026556968689,1
56.28026556968689,5
56.382580041885376,35
56.382580041885376,7
56.382580041885376,1
56.382580041885376,2
56.382580041885376,4
56.382580041885376,0
56.382580041885376,0
56.382580041885376,1
56.382580041885376,8
56.382580041885376,12
56.382580041885376,19
56.48925423622131,5
56.48925423622131,14
56.48925423622131,17
56.48925423622131,34
56.48925423622131,2
56.48925423622131,9
56.48925423622131,4
56.48925423622131,2
56.48925423622131,49
56.48925423622131,36
56.59224843978882,50
56.59224843978882,39
56.59224843978882,47
56.59224843978882,42
56.59224843978882,33
56.59224843978882,18
56.59224843978882,23
56.59224843978882,49
56.59224843978882,43
56.59224843978882,36
56.692394495010376,58
56.692394495010376,39
56.692394495010376,35
56.692394495010376,25
56.692394495010376,31
56.692394495010376,16
56.692394495010376,57
56.692394495010376,36
56.692394495010376,36
56.692394495010376,27
56.79637384414673,10
56.79637384414673,5
56.79637384414673,0
56.79637384414673,2
56.79637384414673,12
56.79637384414673,13
56.79637384414673,8
56.79637384414673,23
56.79637384414673,5
56.79637384414673,0
56.89677596092224,3
56.89677596092224,0
56.89677596092224,1
56.89677596092224,0
56.89677596092224,0
56.89677596092224,0
56.89677596092224,0
56.89677596092224,2
56.89677596092224,23
56.89828133583069,3
56.99529004096985,14
56.99529004096985,0
56.99529004096985,16
56.99529004096985,1
56.99529004096985,16
56.99529004096985,12
56.99529004096985,232
56.99529004096985,186
56.99529004096985,707
57.09620976448059,905
57.09620976448059,445
57.09620976448059,493
57.09620976448059,23
57.09620976448059,203
57.09620976448059,108
57.09620976448059,482
57.09620976448059,375
57.09620976448059,528
57.09620976448059,16
57.197431802749634,8
57.197431802749634,585
57.197431802749634,210
57.197431802749634,206
57.197431802749634,175
57.197431802749634,229
57.197431802749634,8
57.197431802749634,175
57.197431802749634,212
